k,deltaD,D_base,D_harmonic,amplitude,phase
0.5,8.514455785888686,583.273891416929,574.7594356310403,19.411569158436592,-0.19366466111370656
0.531812725090036,8.50084606065002,583.273891416929,574.773045356279,16.172845565188517,-0.5061754668994486
0.563625450180072,8.486460736373488,583.273891416929,574.7874306805555,13.622327036837952,-0.8187543936260978
0.595438175270108,8.471311902079606,583.273891416929,574.8025795148494,11.586234214614972,-1.1314059247778192
0.6272509003601441,8.455412548085178,583.273891416929,574.8184788688438,9.940923283687455,-1.444134614689355
0.65906362545018,8.438776601501445,583.273891416929,574.8351148154276,8.596786971493692,-1.756945092785563
0.690876350540216,8.421418964116356,583.273891416929,574.8524724528127,7.487803365219262,-2.0698420677106792
0.7226890756302521,8.403355552802736,583.273891416929,574.8705358641263,6.564597641104624,-2.3828303313937274
0.7545018007202882,8.384603342512719,583.273891416929,574.8892880744163,5.789742132075318,-2.695914763053568
0.7863145258103241,8.365180411923006,583.273891416929,574.908711005006,5.134513980727487,-3.0091003331418715
0.8181272509003601,8.34510599184398,583.273891416929,574.928785425085,4.576620875403755,2.9607931999739825
0.8499399759903962,8.324400516457672,583.273891416929,574.9494909004713,4.098581426344573,2.6473900575116964
0.8817527010804321,8.30308567749887,583.273891416929,574.9708057394301,3.6865555696014023,2.3338702796752457
0.9135654261704682,8.281184481452783,583.273891416929,574.9927069354762,3.329489052810142,2.020228493385302
0.9453781512605042,8.258721309865564,583.273891416929,575.0151701070635,3.018480201066445,1.706459216054634
0.9771908763505401,8.235721982884002,583.273891416929,575.038169434045,2.746306034921346,1.3925568523585903
1.0090036014405763,8.212213826093034,583.273891416929,575.061677590836,2.5070640021723976,1.078515691211125
1.0408163265306123,8.188225740760913,583.273891416929,575.0856656761681,2.2958985290196012,0.7643299029789482
1.0726290516206483,8.163788277590811,583.273891416929,575.1101031393382,2.108790447439955,0.44999353697735256
1.1044417767106842,8.138933714057202,583.273891416929,575.1349577028718,1.9423934871244242,0.13550051928534274
1.1362545018007202,8.113696135428881,583.273891416929,575.1601952815001,1.7939063180889658,-0.17915534906701464
1.1680672268907561,8.088111519554218,583.273891416929,575.1857798973748,1.6609716771668712,-0.49398039348537853
1.1998799519807923,8.06221782549187,583.273891416929,575.2116735914371,1.5415962944454216,-0.8089810667161457
1.2316926770708283,8.036055086055512,583.273891416929,575.2378363308735,1.4340869150020166,-1.1241639491981814
1.2635054021608643,8.009665504330087,583.273891416929,575.2642259125989,1.3369988648281526,-1.43953574879173
1.2953181272509005,7.983093554209972,583.273891416929,575.290797862719,1.2490944595775895,-1.7551032998040907
1.3271308523409364,7.956386084996666,583.273891416929,575.3175053319324,1.1693091861149654,-2.070873561223467
1.3589435774309724,7.929592430060211,583.273891416929,575.3442989868688,1.0967240595732584,-2.38685361406609
1.3907563025210083,7.902764519572543,583.273891416929,575.3711268973565,1.030542915242946,-2.703050657731799
1.4225690276110443,7.8759569972738745,583.273891416929,575.3979344196551,0.9700736655673918,-3.0194720052569686
1.4543817527010803,7.849227341219262,583.273891416929,575.4246640757098,0.9147127597493933,2.94706022983853
1.4861944777911165,7.822635988412344,583.273891416929,575.4512554285167,0.863932243025352,2.6301679121618835
1.5180072028811524,7.796246463196553,583.273891416929,575.4776449537325,0.8172689362250327,2.3130287363489597
1.5498199279711884,7.7701255092338215,583.273891416929,575.5037659076952,0.7743153524966937,1.9956350088147585
1.5816326530612244,7.7443432248396675,583.273891416929,575.5295481920894,0.7347120435086998,1.677978967201276
1.6134453781512605,7.71897320140647,583.273891416929,575.5549182155225,0.6981411268208404,1.3600527946117853
1.6452581032412965,7.694092664553295,583.273891416929,575.5797987523757,0.6643207931511491,1.0418486359810382
1.6770708283313325,7.669782617595274,583.273891416929,575.6041087993337,0.6330006296668877,0.7233586167577477
1.7088835534213684,7.646127986820034,583.273891416929,575.627763430109,0.6039576253196646,0.40457486408036836
1.7406962785114046,7.6232177679816004,583.273891416929,575.6506736489474,0.57699274825255,0.08548953062644257
1.7725090036014406,7.601145173299756,583.273891416929,575.6727462436293,0.5519280046535457,-0.23390517868428937
1.8043217286914766,7.580007778152321,583.273891416929,575.6938836387767,0.5286039041011087,-0.5536169769590807
1.8361344537815125,7.55990766650541,583.273891416929,575.7139837504236,0.5068772691826874,-0.8736534624082186
1.8679471788715485,7.540951573982056,583.273891416929,575.732939842947,0.48661933756065023,-1.1940220820781642
1.8997599039615847,7.523251027311858,583.273891416929,575.7506403896172,0.4677141131714262,-1.5147300921113132
1.9315726290516206,7.506922478722117,583.273891416929,575.7669689382069,0.45005693024022725,-1.835784514430094
1.9633853541416566,7.492087433636016,583.273891416929,575.781803983293,0.4335531995629747,-2.157192089777271
1.9951980792316926,7.478872569826763,583.273891416929,575.7950188471023,0.4181173112834507,-2.4789592270889886
2.0270108043217285,7.4674098459448714,583.273891416929,575.8064815709841,0.4036716723546068,-2.8010919492288298
2.0588235294117645,7.457836597073197,583.273891416929,575.8160548198558,0.3901458601753246,-3.1235958351757507
2.090636254501801,7.450295614699485,583.273891416929,575.8235958022295,0.3774758766498034,2.8367093483471995
2.1224489795918364,7.444935208186507,583.273891416929,575.8289562087425,0.3656034892250313,2.513448482473855
2.154261704681873,7.441909244512317,583.273891416929,575.8319821724167,0.35447564740248083,2.18980300637008
2.186074429771909,7.441377162713138,583.273891416929,575.8325142542159,0.3440439648529807,1.8657697579347685
2.2178871548619448,7.44350395910385,583.273891416929,575.8303874578252,0.33426425864472703,1.5413463521454425
2.2496998799519807,7.448460138987116,583.273891416929,575.8254312779419,0.32509613826382755,1.2165312532686667
2.2815126050420167,7.4564216301764645,583.273891416929,575.8174697867526,0.3165026380997264,0.8913238472795385
2.3133253301320527,7.467569653271312,583.273891416929,575.8063217636577,0.3084498879152531,0.5657245135166785
2.3451380552220886,7.48209054323911,583.273891416929,575.7918008736899,0.3009068165441683,0.23973469446154952
2.376950780312125,7.500175516470335,583.273891416929,575.7737159004587,0.2938448846803877,-0.08664303760299646
2.4087635054021606,7.522020377125045,583.273891416929,575.751871039804,0.287237843157173,-0.4134049184241778
2.440576230492197,7.547825156249246,583.273891416929,575.7260662606798,0.2810615135766209,-0.7405459355791155
2.472388955582233,7.5777936768666905,583.273891416929,575.6960977400623,0.2752935885506538,-1.0680597798076594
2.504201680672269,7.612133038037314,583.273891416929,575.6617583788917,0.2699134491647951,-1.3959388055010826
2.536014405762305,7.651053010751184,583.273891416929,575.6228384061778,0.2649019975825309,-1.724174001990749
2.567827130852341,7.694765338519687,583.273891416929,575.5791260784093,0.260241502979278,-2.0527549772599896
2.599639855942377,7.743482935672546,583.273891416929,575.5304084812565,0.25591545923533293,-2.38166995563233
2.6314525810324128,7.797418976687254,583.273891416929,575.4764724402418,0.25190845303274584,-2.7109057908660583
2.6632653061224487,7.856785870433669,583.273891416929,575.4171055464953,0.24820604119550027,-3.0404479959051605
2.695078031212485,7.921794114020827,583.273891416929,575.3520973029082,0.24479463628909426,2.91290451688033
2.726890756302521,7.992651022062773,583.273891416929,575.2812403948662,0.2416613996583551,2.5827981411672236
2.758703481392557,8.069559328660375,583.273891416929,575.2043320882686,0.23879414123281162,2.2524363351834795
2.790516206482593,8.152715661294792,583.273891416929,575.1211757556342,0.23618122557006394,1.9218382896642374
2.822328931572629,8.24230888817408,583.273891416929,575.0315825287549,0.23381148374085156,1.5910241133864738
2.854141656662665,8.338518343431929,583.273891416929,574.9353730734971,0.23167413078628346,1.2600146940791406
2.885954381752701,8.441511937961423,583.273891416929,574.8323794789676,0.22975868859972243,0.9288315432093975
2.917767106842737,8.551444167610839,583.273891416929,574.7224472493182,0.22805491420284285,0.5974966264018502
2.949579831932773,8.668454034976662,583.273891416929,574.6054373819524,0.22655273349878002,0.2660321816560498
2.9813925570228093,8.792662906065516,583.273891416929,574.4812285108635,0.2252421806939796,-0.06553947210770192
3.013205282112845,8.924172328624309,583.273891416929,574.3497190883047,0.2241133436837101,-0.3971961333370618
3.045018007202881,9.06306184484015,583.273891416929,574.2108295720889,0.22315631579258952,-0.7289159198963598
3.076830732292917,9.209386837266493,583.273891416929,574.0645045796625,0.22236115434782058,-1.0606774716415142
3.108643457382953,9.363176453008691,583.273891416929,573.9107149639203,0.22171784663614072,-1.3924601502110396
3.140456182472989,9.524431657181594,583.273891416929,573.7494597597474,0.22121628385009387,-1.7242442327304226
3.172268907563025,9.693123472068237,583.273891416929,573.5807679448608,0.22084624366036448,-2.056011096215043
3.204081632653061,9.869191462920185,583.273891416929,573.4046999540088,0.22059738205110782,-2.387743389619389
3.235894357743097,10.052542534496752,583.273891416929,573.2213488824323,0.2204592350178537,-2.7194251907083125
3.2677070828331334,10.243050103782252,583.273891416929,573.0308413131468,0.22042123064534788,-3.0510421452095375
3.2995198079231693,10.44055371339573,583.273891416929,572.8333377035333,0.22047271194896603,2.9006037211451643
3.3313325330132053,10.644859146561089,583.273891416929,572.6290322703679,0.22060297067364149,2.5691526764635966
3.3631452581032413,10.855739097771107,583.273891416929,572.4181523191579,0.2208012919962021,2.2377990515794957
3.3949579831932772,11.072934443212944,583.273891416929,572.2009569737161,0.22105700977222,1.906549961449479
3.426770708283313,11.296156141555343,583.273891416929,571.9777352753737,0.22135957161388545,1.5754105873977413
3.458583433373349,11.525087778931834,583.273891416929,571.7488036379972,0.2216986126926146,1.2443841773494377
3.490396158463385,11.759388752344307,583.273891416929,571.5145026645847,0.22206403674786468,0.9134720710216081
3.522208883553421,11.998698063867437,583.273891416929,571.2751933530616,0.22244610237551393,0.5826737494287477
3.554021608643457,12.24263867494949,583.273891416929,571.0312527419795,0.22283551229363976,0.25198690763065246
3.5858343337334935,12.490822346920368,583.273891416929,570.7830690700087,0.22322350297197177,-0.07859245077232628
3.6176470588235294,12.742854871900477,583.273891416929,570.5310365450285,0.22360193179433077,-0.4090698992969111
3.6494597839135654,12.998341579044563,583.273891416929,570.2755498378845,0.22396335882869364,-0.739452456665812
3.6812725090036014,13.256892985838022,583.273891416929,570.016998431091,0.22430112032766375,-1.0697484399420276
3.7130852340936373,13.518130454124162,583.273891416929,569.7557609628049,0.22460939128338236,-1.3999673056013782
3.7448979591836733,13.781691706572815,583.273891416929,569.4921997103562,0.22488323471335456,-1.7301194816411825
3.7767106842737093,14.047236061839271,583.273891416929,569.2266553550897,0.2251186358419025,-2.06021619394176
3.8085234093637452,14.314449255669615,583.273891416929,568.9594421612594,0.22531251993775878,-2.390269290118652
3.840336134453781,14.5830477301962,583.273891416929,568.6908436867328,0.22546275323339696,-2.720291064023681
3.8721488595438176,14.852782293645532,583.273891416929,568.4211091232835,0.22556812704073645,-3.050294083873004
3.9039615846338536,15.123441076371591,583.273891416929,568.1504503405574,0.22562832584421674,2.9028942804698996
3.9357743097238895,15.394851734954273,583.273891416929,567.8790396819747,0.2256438807516441,2.572890785617946
3.9675870348139255,15.666882882498612,583.273891416929,567.6070085344304,0.22561611017929228,2.2428683039265778
3.9993997599039615,15.939444748640199,583.273891416929,567.3344466682888,0.2255470500145143,1.91281472878787
4.031212484993997,16.212489095824367,583.273891416929,567.0614023211047,0.22543937572324335,1.5827184025680587
4.063025210084033,16.48600843807344,583.273891416929,566.7878829788556,0.22529631895045282,1.2525682234627635
4.09483793517407,16.760034624064474,583.273891416929,566.5138567928645,0.22512158110942346,0.9223537381982283
4.126650660264105,17.03463685750637,583.273891416929,566.2392545594226,0.22491924629000445,0.5920652206745765
4.158463385354142,17.309919234614654,583.273891416929,565.9639721823144,0.22469369556223937,0.2616937369362694
4.190276110444177,17.58601788116846,583.273891416929,565.6878735357606,0.22444952443755997,-0.06876880292008725
4.222088835534214,17.86309777074416,583.273891416929,565.4107936461849,0.2241914649030249,-0.39932960512959786
4.25390156062425,18.141349301891296,583.273891416929,565.1325421150377,0.22392431308970798,-0.729994964061432
4.285714285714286,18.42098470594101,583.273891416929,564.852906710988,0.2236528632952979,-1.060770244518224
4.317527010804321,18.702234349559035,583.273891416929,564.57165706737,0.22338184876915557,-1.3916598736057089
4.3493397358943575,18.985342987695276,583.273891416929,564.2885484292337,0.22311588939625646,-1.7226673412746236
4.381152460984394,19.270566013842995,583.273891416929,564.003325403086,0.2228594461905457,-2.053795208690003
4.4129651860744294,19.558165745969973,583.273891416929,563.715725670959,0.22261678233015467,-2.385045123650999
4.444777911164466,19.84840777846489,583.273891416929,563.4254836384641,0.22239193033517485,-2.7164178423592387
4.476590636254501,20.141557423265,583.273891416929,563.132333993664,0.22218866489973835,-3.047913256908973
4.508403361344538,20.437876257095695,583.273891416929,562.8360151598333,0.2220104808385399,2.9036548792363894
4.540216086434573,20.737618786597864,583.273891416929,562.5362726303312,0.2218605755879434,2.5719176851979317
4.57202881152461,21.041029239034515,583.273891416929,562.2328621778945,0.22174183570718728,2.240062954200826
4.603841536614646,21.348338483239218,583.273891416929,561.9255529336898,0.2216568268501324,1.9080938794707876
4.635654261704682,21.659761083410558,583.273891416929,561.6141303335185,0.22160778671707587,1.5760143125750503
4.667466986794718,21.97549248720111,583.273891416929,561.2983989297279,0.22159662054484086,1.2438287114874915
4.699279711884754,22.295706349182524,583.273891416929,560.9781850677465,0.22162489874757269,0.9115420859070087
4.73109243697479,22.620551991069874,583.273891416929,560.6533394258591,0.22169385637745184,0.5791599401787897
4.7629051620648255,22.9501520009685,583.273891416929,560.3237394159605,0.22180439413123046,0.24668821417491554
4.794717887154862,23.284599975230435,583.273891416929,559.9892914416986,0.22195708068337577,-0.08586677749966834
4.826530612244897,23.623958408194312,583.273891416929,559.6499330087347,0.22215215617823186,-0.4184984075973466
4.858343337334934,23.968256737003685,583.273891416929,559.3056346799253,0.22238953676110773,-0.7511997992245032
4.89015606242497,24.31748955078092,583.273891416929,558.9564018661481,0.22266882007098213,-1.0839638893445316
4.921968787515006,24.671614975572083,583.273891416929,558.6022764413569,0.22298929165521425,-1.416783492381023
4.953781512605042,25.030553248588376,583.273891416929,558.2433381683406,0.22334993229913294,-1.7496513635124216
4.985594237695078,25.39418549725451,583.273891416929,557.8797059196745,0.2237494262905886,-2.0825602612524388
5.017406962785114,25.76235274037765,583.273891416929,557.5115386765514,0.2241861706615897,-2.4155030089193987
5.04921968787515,26.134855130256142,583.273891416929,557.1390362866729,0.22465828546600564,-2.748472554611207
5.081032412965186,26.51145145569774,583.273891416929,556.7624399612313,0.22516362516416,-3.081462029322669
5.112845138055222,26.89185892662863,583.273891416929,556.3820324903004,0.22569979119206457,2.8687205043143624
5.144657863145258,27.275753261174373,583.273891416929,555.9981381557546,0.22626414579510667,2.5357107699019195
5.176470588235294,27.66276909570047,583.273891416929,555.6111223212285,0.2268538272032797,2.2027000697332415
5.20828331332533,28.052500737265404,583.273891416929,555.2213906796636,0.22746576621764644,1.869694008493576
5.240096038415366,28.444503276201317,583.273891416929,554.8293881407277,0.22809670426567447,1.536697756115024
5.271908763505402,28.83829407404619,583.273891416929,554.4355973428828,0.22874321296650743,1.2037160068931327
5.303721488595438,29.233354638779815,583.273891416929,554.0405367781492,0.22940171522621963,0.8707529422002906
5.335534213685474,29.629132895273187,583.273891416929,553.6447585216558,0.23006850785789176,0.537812196925642
5.36734693877551,30.02504585401539,583.273891416929,553.2488455629136,0.23073978569215967,0.2048968297481254
5.399159663865546,30.420482675621315,583.273891416929,552.8534087413077,0.23141166711112723,-0.12799070266807483
5.430972388955582,30.814808122351337,583.273891416929,552.4590832945777,0.23208022090267114,-0.4608485674803533
5.4627851140456185,31.207366381061206,583.273891416929,552.0665250358678,0.23274149429392735,-0.7936755734094826
5.494597839135654,31.59748523467715,583.273891416929,551.6764061822519,0.23339154198285345,-1.1264711843539805
5.52641056422569,31.98448055170752,583.273891416929,551.2894108652215,0.23402645594626317,-1.4592355288152388
5.558223289315726,32.36766105558195,583.273891416929,550.9062303613471,0.23464239576276338,-1.7919694050695976
5.590036014405762,32.74633332799067,583.273891416929,550.5275580889383,0.23523561915087923,-2.124674282020904
5.621848739495798,33.11980699311573,583.273891416929,550.1540844238133,0.23580251238774408,-2.4573522956632603
5.653661464585834,33.48740002295983,583.273891416929,549.7864913939692,0.23633962024362004,-2.7900062410826107
5.68547418967587,33.84844409811649,583.273891416929,549.4254473188125,0.23684367504357903,-3.1226395599266916
5.717286914765906,34.20228995358252,583.273891416929,549.0716014633465,0.23731162445158024,2.8279289839002475
5.749099639855943,34.54831263578944,583.273891416929,548.7255787811396,0.2377406575650083,2.4953240972930786
5.780912364945978,34.88591659515248,583.273891416929,548.3879748217765,0.23812822891084612,2.1627258274790124
5.812725090036015,35.21454053825289,583.273891416929,548.0593508786761,0.23847207994861008,1.83012836444369
5.84453781512605,35.53366196542879,583.273891416929,547.7402294515002,0.2387702577106034,1.4975253839163534
5.8763505402160865,35.842801323052186,583.273891416929,547.4310900938768,0.23902113024672977,1.1649100877655723
5.908163265306122,36.14152570514602,583.273891416929,547.132365711783,0.23922339858866312,0.8322752488641281
5.939975990396158,36.42945204613386,583.273891416929,546.8444393707952,0.2393761050055152,0.499613260243834
5.971788715486194,36.70624975524731,583.273891416929,546.5676416616817,0.23947863738878045,0.16691618829860655
6.00360144057623,36.97164275325349,583.273891416929,546.3022486636755,0.2395307296763863,-0.16582417027358887
6.035414165666267,37.22541088335936,583.273891416929,546.0484805335697,0.23953245830178604,-0.49861622816807655
6.067226890756302,37.46739068014176,583.273891416929,545.8065007367873,0.23948423473179561,-0.8314685442580828
6.099039615846339,37.697475492731996,583.273891416929,545.576415924197,0.23938679423362733,-1.164389757981669
6.130852340936374,37.91561497087332,583.273891416929,545.3582764460557,0.23924118108473483,-1.4973885219094167
6.162665066026411,38.12181393455319,583.273891416929,545.1520774823758,0.23904873050635822,-1.8304734331286112
6.194477791116446,38.316130659253304,583.273891416929,544.9577607576757,0.23881104766079786,-2.163652964128446
6.2262905162064826,38.498674619219855,583.273891416929,544.7752167977092,0.23852998410188003,-2.496935393910725
