k,deltaD,D_base,D_harmonic,amplitude,phase
0.5,0.2866793080568186,1001.6566708111891,1001.3699915031323,0.5526975026475063,-0.7537754879486163
0.531812725090036,0.28763041786442045,1001.6566708111891,1001.3690403933247,0.4617156042592041,-1.106923559758474
0.563625450180072,0.28865267752496493,1001.6566708111891,1001.3680181336641,0.390281328559692,-1.4608292928653448
0.595438175270108,0.2897483383312647,1001.6566708111891,1001.3669224728578,0.3334515208762033,-1.8154588548876025
0.6272509003601441,0.29091978446967914,1001.6566708111891,1001.3657510267194,0.28770964443735625,-2.170762923186232
0.65906362545018,0.292169533311494,1001.6566708111891,1001.3645012778776,0.25050743457421587,-2.5266763905405076
0.690876350540216,0.29350023570623307,1001.6566708111891,1001.3631705754829,0.21996740284936628,-2.883118533776417
0.7226890756302521,0.29491467626758094,1001.6566708111891,1001.3617561349215,0.19468538018584622,3.0431915967432466
0.7545018007202882,0.2964157736493007,1001.6566708111891,1001.3602550375398,0.1735967970413568,2.685992686080932
0.7863145258103241,0.29800658081069287,1001.6566708111891,1001.3586642303784,0.15588446512611093,2.3285911691503967
0.8181272509003601,0.29969028526329566,1001.6566708111891,1001.3569805259258,0.14091392049557078,1.97111764863376
0.8499399759903962,0.30147020929757673,1001.6566708111891,1001.3552006018915,0.12818740171558146,1.6137094095663773
0.8817527010804321,0.3033498101870009,1001.6566708111891,1001.3533210010021,0.11731063581279694,1.256507312387606
0.9135654261704682,0.3053326803616301,1001.6566708111891,1001.3513381308275,0.10796855986459444,0.8996525263758753
0.9453781512605042,0.30742254754875376,1001.6566708111891,1001.3492482636403,0.09990736299753258,0.5432832737854758
0.9771908763505401,0.30962327487441144,1001.6566708111891,1001.3470475363147,0.09292105581934665,0.1875317541465075
1.0090036014405763,0.3119388609250109,1001.6566708111891,1001.3447319502641,0.08684132097807867,-0.1674785991180407
1.0408163265306123,0.3143734397593789,1001.6566708111891,1001.3422973714297,0.0815297675004136,-0.5216354086208306
1.0726290516206483,0.3169312808660152,1001.6566708111891,1001.3397395303231,0.0768719640819186,-0.8748391085689294
1.1044417767106842,0.31961678906759516,1001.6566708111891,1001.3370540221215,0.07277280157890882,-1.2270041289782205
1.1362545018007202,0.32243450435760224,1001.6566708111891,1001.3342363068315,0.06915285778791552,-1.5780595136193811
1.1680672268907561,0.32538910167170343,1001.6566708111891,1001.3312817095174,0.06594552471265172,-1.927949012767772
1.1998799519807923,0.3284853905856835,1001.6566708111891,1001.3281854206034,0.0630947209077874,-2.276630718655225
1.2316926770708283,0.33172831493220656,1001.6566708111891,1001.3249424962569,0.060553056561759085,-2.624076328229862
1.2635054021608643,0.3351229523409529,1001.6566708111891,1001.3215478588481,0.05828035180619939,-2.9702701246963334
1.2953181272509005,0.33867451368496404,1001.6566708111891,1001.3179962975041,0.056242432821227865,2.9679775393289387
1.3271308523409364,0.34238834243933525,1001.6566708111891,1001.3142824687498,0.05441014809823638,2.624290331627248
1.3589435774309724,0.34626991394497963,1001.6566708111891,1001.3104008972441,0.05275856045886819,2.281839140193437
1.3907563025210083,0.35032483457416674,1001.6566708111891,1001.3063459766149,0.05126628034728774,1.9406021824068542
1.4225690276110443,0.3545588407961304,1001.6566708111891,1001.302111970393,0.04991491339908018,1.6005515881031522
1.4543817527010803,0.3589777981437692,1001.6566708111891,1001.2976930130453,0.048688600984853496,1.2616545832970594
1.4861944777911165,0.3635877000783694,1001.6566708111891,1001.2930831111107,0.0475736367931318,0.9238745629081313
1.5180072028811524,0.36839466675826316,1001.6566708111891,1001.2882761444308,0.04655814589309107,0.5871720430179826
1.5498199279711884,0.373404943712103,1001.6566708111891,1001.283265867477,0.04563181534965896,0.25150549047956855
1.5816326530612244,0.3786249004219826,1001.6566708111891,1001.2780459107671,0.04478566753204707,-0.08316796691634883
1.6134453781512605,0.38406102883118365,1001.6566708111891,1001.2726097823579,0.044011868895576026,-0.4168919428142755
1.6452581032412965,0.3897199417772299,1001.6566708111891,1001.2669508694119,0.0433035683243287,-0.7497102979847453
1.6770708283313325,0.3956083713760563,1001.6566708111891,1001.261062439813,0.04265476017301767,-1.0816667388839154
1.7088835534213684,0.40173316737059395,1001.6566708111891,1001.2549376438185,0.04206016799579603,-1.4128044982244141
1.7406962785114046,0.4081012954675316,1001.6566708111891,1001.2485695157216,0.04151514564012765,-1.7431660868634538
1.7725090036014406,0.41471983569363147,1001.6566708111891,1001.2419509754955,0.041015592947731515,-2.0727931068832337
1.8043217286914766,0.42159598080661453,1001.6566708111891,1001.2350748303825,0.040557883766980975,-2.401726116527375
1.8361344537815125,0.42873703480358927,1001.6566708111891,1001.2279337763855,0.040138804361747354,-2.7300045385847276
1.8679471788715485,0.4361504115761363,1001.6566708111891,1001.220520399613,0.039755500615972154,-3.0576666047738668
1.8997599039615847,0.4438436337775329,1001.6566708111891,1001.2128271774116,0.039405432693384305,2.8984359775484405
1.9315726290516206,0.45182433196714555,1001.6566708111891,1001.2048464792219,0.03908633602785462,2.571896798873357
1.9633853541416566,0.46010024412225903,1001.6566708111891,1001.1965705670668,0.0387961876994686,2.245866573685157
1.9951980792316926,0.46867921560954073,1001.6566708111891,1001.1879915955795,0.03853317740125697,1.9203118796998722
2.0270108043217285,0.47756919973221557,1001.6566708111891,1001.1791016114569,0.038295682326547155,1.5952004212616897
2.0588235294117645,0.4867782589834633,1001.6566708111891,1001.1698925522056,0.03808224541172251,1.270500976616205
2.090636254501801,0.4963145671559914,1001.6566708111891,1001.1603562440331,0.037891556456777414,0.9461833385490329
2.1224489795918364,0.5061864124803606,1001.6566708111891,1001.1504843987087,0.037722435720003465,0.6222182502777589
2.154261704681873,0.5164022019896493,1001.6566708111891,1001.1402686091994,0.037573819645014744,0.2985773381383365
2.186074429771909,0.5269704673371507,1001.6566708111891,1001.1297003438519,0.03744474843081751,-0.02476695768654765
2.2178871548619448,0.5378998723174391,1001.6566708111891,1001.1187709388716,0.03733435519985719,-0.34784145338677164
2.2496998799519807,0.5491992223870739,1001.6566708111891,1001.107471588802,0.03724185655643692,-0.6706722918737815
2.2815126050420167,0.5608774765029239,1001.6566708111891,1001.0957933346862,0.037166544359915316,-0.9932850125962587
2.3133253301320527,0.5729437616512314,1001.6566708111891,1001.0837270495379,0.037107778564197606,-1.3157046202753355
2.3451380552220886,0.5854073904733923,1001.6566708111891,1001.0712634207157,0.037064980998322186,-1.6379556521012075
2.376950780312125,0.5982778824482011,1001.6566708111891,1001.0583929287409,0.03703762998299293,-1.960062242995085
2.4087635054021606,0.611564989138742,1001.6566708111891,1001.0451058220503,0.037025255695066685,-2.282048188576822
2.440576230492197,0.6252787240742919,1001.6566708111891,1001.0313920871148,0.037027436206992906,-2.6039370054962605
2.472388955582233,0.6394293978787573,1001.6566708111891,1001.0172414133103,0.03704379414120586,-2.925751988784716
2.504201680672269,0.6540276593427734,1001.6566708111891,1001.0026431518463,0.037073993890781344,3.035669041317478
2.536014405762305,0.6690845431747903,1001.6566708111891,1000.9875862680143,0.03711773936768174,2.7139324603788118
2.567827130852341,0.6846115252551499,1001.6566708111891,1000.9720592859339,0.03717477224864468,2.392200636784956
2.599639855942377,0.7006205862633124,1001.6566708111891,1000.9560502249258,0.03724487069645462,2.070450661663098
2.6314525810324128,0.7171242846225141,1001.6566708111891,1000.9395465265666,0.03732784854110286,1.748659620013152
2.6632653061224487,0.7341358397709428,1001.6566708111891,1000.9225349714181,0.0374235549111457,1.4268045606600233
2.695078031212485,0.7516692268162615,1001.6566708111891,1000.9050015843728,0.037531874310568585,1.1048624730045165
2.726890756302521,0.769739283685567,1001.6566708111891,1000.8869315275035,0.03765272714050645,0.7828102714900416
2.758703481392557,0.788361831920156,1001.6566708111891,1000.8683089792689,0.037786070668307865,0.4606247888310859
2.790516206482593,0.8075538122820944,1001.6566708111891,1000.849116998907,0.03793190044851426,0.13828277918749204
2.822328931572629,0.8273334363490221,1001.6566708111891,1000.8293373748401,0.03809025220118876,-0.1842390673889371
2.854141656662665,0.8477203552457695,1001.6566708111891,1000.8089504559433,0.03826120415256564,-0.5069640977643246
2.885954381752701,0.8687358466041815,1001.6566708111891,1000.7879349645849,0.03844487984091166,-0.8299156541783351
2.917767106842737,0.8904030207556843,1001.6566708111891,1000.7662677904334,0.03864145138657921,-1.1531170166070428
2.949579831932773,0.9127470470141361,1001.6566708111891,1000.743923764175,0.03885114321913947,-1.4765913271871574
2.9813925570228093,0.9357954007109583,1001.6566708111891,1000.7208754104781,0.03907423624600793,-1.80036149478393
3.013205282112845,0.9595781313896623,1001.6566708111891,1000.6970926797994,0.039311072435651184,-2.1244500777593025
3.045018007202881,0.9841281522277541,1001.6566708111891,1000.6725426589613,0.03956205977411492,-2.4488791430385475
3.076830732292917,1.0094815503423433,1001.6566708111891,1000.6471892608467,0.039827677535909,-2.7736700997027084
3.108643457382953,1.0356779171294193,1001.6566708111891,1000.6209928940597,0.040108481789085056,-3.098843505572138
3.140456182472989,1.0627606971822843,1001.6566708111891,1000.5939101140068,0.040405111029569264,2.8587664615575705
3.172268907563025,1.0907775536361441,1001.6566708111891,1000.565893257553,0.04071829181168406,2.5327710255706197
3.204081632653061,1.119780746962192,1001.6566708111891,1000.5368900642269,0.04104884421065338,2.2063389341654287
3.235894357743097,1.1498275233336699,1001.6566708111891,1000.5068432878554,0.04139768691947498,1.8794555368329204
3.2677070828331334,1.1809805076658222,1001.6566708111891,1000.4756903035233,0.04176584174816077,1.5521084241620235
3.2995198079231693,1.2133080953435638,1001.6566708111891,1000.4433627158455,0.04215443725932345,1.224287781786962
3.3313325330132053,1.246884835474475,1001.6566708111891,1000.4097859757146,0.04256471124284108,0.8959867609259196
3.3631452581032413,1.28179179731751,1001.6566708111891,1000.3748790138716,0.04299801170634844,0.5672018584700346
3.3949579831932772,1.318116910318622,1001.6566708111891,1000.3385539008705,0.043455796040704875,0.2379332976368911
3.426770708283313,1.3559552670326411,1001.6566708111891,1000.3007155441564,0.04393962801392037,-0.09181460178526579
3.458583433373349,1.3954093771204725,1001.6566708111891,1000.2612614340686,0.04445117225686577,-0.42203307648660254
3.490396158463385,1.4365893597124568,1001.6566708111891,1000.2200814514766,0.0449921859329955,-0.7527086105409537
3.522208883553421,1.4796130607169289,1001.6566708111891,1000.1770577504722,0.045564507335227995,-1.083822679994023
3.554021608643457,1.5246060812519318,1001.6566708111891,1000.1320647299372,0.04617004122814872,-1.415351567617884
3.5858343337334935,1.5717017033229013,1001.6566708111891,1000.0849691078662,0.046810740853292204,-1.747266264161607
3.6176470588235294,1.6210406992554454,1001.6566708111891,1000.0356301119336,0.04748858663810676,-2.0795324712980765
3.6494597839135654,1.6727710122244162,1001.6566708111891,999.9838997989647,0.04820556179157761,-2.4121107192332536
3.6812725090036014,1.7270472966039279,1001.6566708111891,999.9296235145852,0.048963625125133525,-2.7449566085644994
3.7130852340936373,1.784030308746651,1001.6566708111891,999.8726405024424,0.04976468159776445,-3.078021181503945
3.7448979591836733,1.8438861412246297,1001.6566708111891,999.8127846699645,0.05061055123851059,2.8719338849825164
3.7767106842737093,1.9067852964658414,1001.6566708111891,999.7498855147232,0.051502937235704156,2.5385944273194143
3.8085234093637452,1.9729015990216112,1001.6566708111891,999.6837692121675,0.05244339408830733,2.2052049049470965
3.840336134453781,2.0424109493227434,1001.6566708111891,999.6142598618663,0.053433296779303155,1.8718263463167897
3.8721488595438176,2.115489925565498,1001.6566708111891,999.5411808856236,0.05447381194569325,1.5385207626531259
3.9039615846338536,2.1923142441627306,1001.6566708111891,999.4643565670264,0.05556587197881808,1.2053502141234274
3.9357743097238895,2.273057092851559,1001.6566708111891,999.3836137183375,0.05671015289229763,0.8723758657283727
3.9675870348139255,2.357887353848355,1001.6566708111891,999.2987834573407,0.05790705664621267,0.5396570636551378
3.9993997599039615,2.446967737260934,1001.6566708111891,999.2097030739282,0.05915669842466859,0.2072504615575744
4.031212484993997,2.5404528471301546,1001.6566708111891,999.1162179640589,0.06045889914154624,-0.12479077679829903
4.063025210084033,2.6384872038859157,1001.6566708111891,999.0181836073032,0.061813183211312524,-0.45641767657487725
4.09483793517407,2.7412032475730257,1001.6566708111891,998.9154675636161,0.06321878138420114,-0.7875860361802576
4.126650660264105,2.848719345948666,1001.6566708111891,998.8079514652404,0.06467463822347767,-1.1182568865579634
4.158463385354142,2.9611378304661002,1001.6566708111891,998.695532980723,0.06617942361022856,-1.4483968213182192
4.190276110444177,3.078543081373482,1001.6566708111891,998.5781277298156,0.06773154750890163,-1.7779781993748576
4.222088835534214,3.2009996807794323,1001.6566708111891,998.4556711304097,0.06932917712126163,-2.1069792268023257
4.25390156062425,3.3285506497761617,1001.6566708111891,998.3281201614129,0.07097025550077027,-2.4353839286849954
4.285714285714286,3.4612157827556302,1001.6566708111891,998.1954550284335,0.07265252069288614,-2.7631820246678993
4.317527010804321,3.598990089156132,1001.6566708111891,998.057680722033,0.07437352450599156,-3.0903687237175768
4.3493397358943575,3.7418423502656424,1001.6566708111891,997.9148284609234,0.07613065009676215,2.866240852835509
4.381152460984394,3.8897137965805086,1001.6566708111891,997.7669570146086,0.07792112766553053,2.5402707608156323
4.4129651860744294,4.042516909816413,1001.6566708111891,997.6141539013727,0.07974204769387837,2.2148964277932253
4.444777911164466,4.20013435312751,1001.6566708111891,997.4565364580616,0.08159037131052038,1.8901037954021849
4.476590636254501,4.36241803352118,1001.6566708111891,997.2942527776679,0.08346293753531385,1.5658750050857833
4.508403361344538,4.52918830197234,1001.6566708111891,997.1274825092167,0.08535646731887832,1.2421887741315998
4.540216086434573,4.70023329929154,1001.6566708111891,996.9564375118975,0.08726756446148702,0.9190207610701164
4.57202881152461,4.875308459420012,1001.6566708111891,996.7813623517691,0.08919271365575555,0.5963439142064904
4.603841536614646,5.054136186313485,1001.6566708111891,996.6025346248756,0.09112827604990949,0.2741287987777849
4.635654261704682,5.236405725880218,1001.6566708111891,996.4202650853089,0.0930704828699949,-0.047656100249862256
4.667466986794718,5.4217732602245405,1001.6566708111891,996.2348975509645,0.09501542776834061,-0.3690441014237542
4.699279711884754,5.609862257519808,1001.6566708111891,996.0468085536693,0.09695905868042129,-0.69007007667985
4.73109243697479,5.800264116799326,1001.6566708111891,995.8564066943898,0.09889717007148,-1.0107702275640782
4.7629051620648255,5.992539152456402,1001.6566708111891,995.6641316587327,0.10082539653580953,-1.3311818868171041
4.794717887154862,6.186217967807352,1001.6566708111891,995.4704528433817,0.10273920877312222,-1.6513433438047032
4.826530612244897,6.380803270241927,1001.6566708111891,995.2758675409472,0.1046339130048896,-1.9712936918718422
4.858343337334934,6.575772181759135,1001.6566708111891,995.08089862943,0.10650465490497889,-2.2910726954015685
4.89015606242497,6.770579097501468,1001.6566708111891,994.8860917136876,0.10834642909892932,-2.6107206741445
4.921968787515006,6.964659140828189,1001.6566708111891,994.6920116703609,0.11015409522993796,-2.930278402232964
4.953781512605042,7.157432256003403,1001.6566708111891,994.4992385551857,0.11192240149181758,3.0333982879923274
4.985594237695078,7.348307968376957,1001.6566708111891,994.3083628428121,0.11364601638528668,2.7138973570300764
5.017406962785114,7.536690826809718,1001.6566708111891,994.1199799843794,0.11531956926036106,2.394362474644998
5.04921968787515,7.721986523979012,1001.6566708111891,993.9346842872101,0.11693769996231398,2.0747518609181825
5.081032412965186,7.903608667330559,1001.6566708111891,993.7530621438585,0.11849511760261591,1.7550236624581443
5.112845138055222,8.080986147305111,1001.6566708111891,993.575684663884,0.11998666813354499,1.4351360235267376
5.144657863145258,8.253571020899358,1001.6566708111891,993.4030997902897,0.12140741002426013,1.1150471620576652
5.176470588235294,8.420846798754155,1001.6566708111891,993.2358240124349,0.12275269692988601,0.7947154533097178
5.20828331332533,8.582336994248408,1001.6566708111891,993.0743338169407,0.1240182658310682,0.4740995238122003
5.240096038415366,8.73761376526977,1001.6566708111891,992.9190570459193,0.125200328721354,0.15315835814527226
5.271908763505402,8.886306455288036,1001.6566708111891,992.770364355901,0.1262956655582162,-0.1681485790513891
5.303721488595438,9.02810982200117,1001.6566708111891,992.6285609891879,0.12730171589676373,-0.4898612036358431
5.335534213685474,9.16279173099747,1001.6566708111891,992.4938790801916,0.12821666641874194,-0.8120186531096385
5.36734693877551,9.290200090054213,1001.6566708111891,992.3664707211349,0.12903953147528877,-1.1346591066498788
5.399159663865546,9.410268807961529,1001.6566708111891,992.2464020032276,0.12977022379653128,-1.4578195826522593
5.430972388955582,9.523022580526913,1001.6566708111891,992.1336482306622,0.13040961269265233,-1.7815357127981017
5.4627851140456185,9.628580335406241,1001.6566708111891,992.0280904757828,0.13095956737797515,-2.105841492119203
5.494597839135654,9.727157205571643,1001.6566708111891,991.9295136056174,0.1314229834798409,-2.4307690050842563
5.52641056422569,9.819064946775597,1001.6566708111891,991.8376058644135,0.13180379132559852,-2.756348128387777
5.558223289315726,9.904710764926335,1001.6566708111891,991.7519600462628,0.13210694520349578,-3.0826062119083915
5.590036014405762,9.984594572018977,1001.6566708111891,991.6720762391701,0.13233839343062165,2.8736175669401534
5.621848739495798,10.059304741164397,1001.6566708111891,991.5973660700247,0.132505029695099,2.5459313288825167
5.653661464585834,10.129512479351888,1001.6566708111891,991.5271583318372,0.13261462673371446,2.2175027013897415
5.68547418967587,10.195964978260236,1001.6566708111891,991.4607058329289,0.13267575392839195,1.8883179603990679
5.717286914765906,10.259477536527015,1001.6566708111891,991.3971932746621,0.132697680831234,1.5583677050171614
5.749099639855943,10.320924870038539,1001.6566708111891,991.3357459411505,0.1326902689439793,1.2276472126274094
5.780912364945978,10.381231839239717,1001.6566708111891,991.2754389719494,0.1326638542788406,0.8961567703929739
5.812725090036015,10.441363824360906,1001.6566708111891,991.2153069868282,0.13262912331878812,0.5639019703956144
5.84453781512605,10.502316971488995,1001.6566708111891,991.1543538397001,0.13259698498844136,0.23089395434018226
5.8763505402160865,10.565108515977954,1001.6566708111891,991.0915622952111,0.13257844115922932,-0.10285040711737178
5.908163265306122,10.63076736645462,1001.6566708111891,991.0259034447345,0.1325844580638818,-0.43730841560667094
5.939975990396158,10.700325104620447,1001.6566708111891,990.9563457065686,0.13262584080467196,-0.7724515414718818
5.971788715486194,10.774807525140204,1001.6566708111891,990.8818632860489,0.13271311292381063,-1.1082455284973782
6.00360144057623,10.855226808074576,1001.6566708111891,990.8014440031145,0.1328564027753182,-1.4446506174544353
6.035414165666267,10.942574385221292,1001.6566708111891,990.7140964259678,0.1330653382034117,-1.781621895337006
