k,deltaD,D_base,D_harmonic,amplitude,phase
0.5,5.3511418515277,1240.3123288919742,1234.9611870404465,9.00081006541198,-0.16736127898713912
0.531812725090036,5.342605325010027,1240.3123288919742,1234.9697235669641,7.49310165111245,-0.4780364460255927
0.563625450180072,5.333555764644643,1240.3123288919742,1234.9787731273295,6.306058227117564,-0.7887495863326194
0.595438175270108,5.323995768340637,1240.3123288919742,1234.9883331236335,5.35867529878985,-1.0995033351466728
0.6272509003601441,5.313928144856845,1240.3123288919742,1234.9984007471173,4.5933231620722,-1.4103003948079345
0.65906362545018,5.3033559246837285,1240.3123288919742,1235.0089729672904,3.9682400810840255,-1.721143539632125
0.690876350540216,5.2922823717240135,1240.3123288919742,1235.0200465202502,3.452659219906803,-2.0320356209737294
0.7226890756302521,5.280710995816207,1240.3123288919742,1235.031617896158,3.0235736899770713,-2.3429795724948015
0.7545018007202882,5.268645566133728,1240.3123288919742,1235.0436833258404,2.6635453241898275,-2.6539784156532593
0.7863145258103241,5.256090125503761,1240.3123288919742,1235.0562387664704,2.3591930895324356,-2.965035265424259
0.8181272509003601,5.243049005688363,1240.3123288919742,1235.0692798862858,2.1001328773101227,3.0070319709095887
0.8499399759903962,5.229526843676922,1240.3123288919742,1235.0828020482973,1.8782225123025373,2.6958493588055767
0.8817527010804321,5.215528599034542,1240.3123288919742,1235.0968002929396,1.687016573970363,2.384598773024407
0.9135654261704682,5.201059572368877,1240.3123288919742,1235.1112693196053,1.5213676425831038,2.0732766621014314
0.9453781512605042,5.186125424957709,1240.3123288919742,1235.1262034670165,1.377131167609496,1.7618793484020818
0.9771908763505401,5.17073219961344,1240.3123288919742,1235.1415966923607,1.250944619216587,1.4504030206677219
1.0090036014405763,5.154886342834288,1240.3123288919742,1235.15744254914,1.1400605313799024,1.1388437262129754
1.0408163265306123,5.138594728316093,1240.3123288919742,1235.173734163658,1.04221908023197,0.8271973627574257
1.0726290516206483,5.121864681895659,1240.3123288919742,1235.1904642100785,0.9555499682774093,0.5154596698733742
1.1044417767106842,5.1047040079986346,1240.3123288919742,1235.2076248839755,0.8784962436108678,0.2036262200322059
1.1362545018007202,5.087121017671052,1240.3123288919742,1235.2252078743031,0.8097546870969355,-0.10830759076862548
1.1680672268907561,5.069124558279327,1240.3123288919742,1235.2432043336948,0.7482288209433654,-0.4203465528151348
1.1998799519807923,5.050724044965818,1240.3123288919742,1235.2616048470084,0.6929916097104538,-0.7324956529394124
1.2316926770708283,5.0319294939520205,1240.3123288919742,1235.2803993980222,0.643255661047616,-1.0447600852508712
1.2635054021608643,5.012751557786487,1240.3123288919742,1235.2995773341877,0.5983492711196533,-1.3571452623505187
1.2953181272509005,4.99320156263866,1240.3123288919742,1235.3191273293355,0.5576970558036073,-1.669656827040585
1.3271308523409364,4.9732915477425195,1240.3123288919742,1235.3390373442317,0.5208042030068171,-1.982300664539479
1.3589435774309724,4.953034307106918,1240.3123288919742,1235.3592945848673,0.4872436017875118,-2.295082915209408
1.3907563025210083,4.9324434335981096,1240.3123288919742,1235.379885458376,0.4566452701778617,-2.6080099877995475
1.4225690276110443,4.911533365522246,1240.3123288919742,1235.400795526452,0.4286876298759695,-2.9210885732037735
1.4543817527010803,4.890319435826768,1240.3123288919742,1235.4220094561474,0.403090272562209,3.048859648454161
1.4861944777911165,4.8688179240512,1240.3123288919742,1235.443510967923,0.3796079369398892,2.735456764344311
1.5180072028811524,4.847046111154668,1240.3123288919742,1235.4652827808195,0.35802547318304834,2.4218804567797974
1.5498199279711884,4.82502233735886,1240.3123288919742,1235.4873065546153,0.3381536163317368,2.108122758832475
1.5816326530612244,4.802766063139188,1240.3123288919742,1235.509562828835,0.3198254253181389,1.7941753454540208
1.6134453781512605,4.780297933504471,1240.3123288919742,1235.5320309584697,0.3028932719815384,1.4800295170842213
1.6452581032412965,4.757639845704489,1240.3123288919742,1235.5546890462697,0.2872262863393835,1.1656761830028575
1.6770708283313325,4.734815020500264,1240.3123288919742,1235.577513871474,0.27270818180925616,0.8511058445219245
1.7088835534213684,4.711848077138484,1240.3123288919742,1235.6004808148357,0.25923539800468165,0.5363085781389999
1.7406962785114046,4.688765112157398,1240.3123288919742,1235.6235637798168,0.2467155099099972,0.22127401880012984
1.7725090036014406,4.665593782152655,1240.3123288919742,1235.6467351098215,0.2350658612546366,-0.09400865654669903
1.8043217286914766,4.642363390622904,1240.3123288919742,1235.6699655013513,0.22421238720746556,-0.40955074488913595
1.8361344537815125,4.619104978994983,1240.3123288919742,1235.6932239129792,0.21408859744498482,-0.7253640323168208
1.8679471788715485,4.595851421926,1240.3123288919742,1235.7164774700482,0.20463469548911392,-1.041460808104595
1.8997599039615847,4.572637526946892,1240.3123288919742,1235.7396913650273,0.1957968141763183,-1.3578538773429143
1.9315726290516206,4.549500138498388,1240.3123288919742,1235.7628287534758,0.18752635037870943,-1.6745565716807564
1.9633853541416566,4.52647824637279,1240.3123288919742,1235.7858506456014,0.17977938478650246,-1.9915827576719372
1.9951980792316926,4.503613098534515,1240.3123288919742,1235.8087157934397,0.1725161747852988,-2.3089468421325408
2.0270108043217285,4.480948318257788,1240.3123288919742,1235.8313805737164,0.16570071030809183,-2.6266637738235166
2.0588235294117645,4.45853002545573,1240.3123288919742,1235.8537988665184,0.15930032407902386,-2.944749040669063
2.090636254501801,4.436406962006231,1240.3123288919742,1235.875921929968,0.15328534894913795,3.0199666455722562
2.1224489795918364,4.414630620810385,1240.3123288919742,1235.8976982711638,0.1476288160986784,2.7010961351334575
2.154261704681873,4.393255378221966,1240.3123288919742,1235.9190735137522,0.14230618878198018,2.381807705416268
2.186074429771909,4.3723386293672775,1240.3123288919742,1235.939990262607,0.13729512704895724,2.062083863228476
2.2178871548619448,4.351940925763984,1240.3123288919742,1235.9603879662102,0.1325752795162731,1.7419066932210838
2.2496998799519807,4.332126114477887,1240.3123288919742,1235.9802027774963,0.12812809880031067,1.4212579110396948
2.2815126050420167,4.312961477887939,1240.3123288919742,1235.9993674140862,0.12393667767975894,1.1001189301030798
2.3133253301320527,4.294517872927372,1240.3123288919742,1236.0178110190468,0.11998560344104385,0.7784709438718872
2.3451380552220886,4.276869868426729,1240.3123288919742,1236.0354590235474,0.11626082818560866,0.4562950255783756
2.376950780312125,4.260095878913944,1240.3123288919742,1236.0522330130602,0.11274955315375793,0.13357224746239477
2.4087635054021606,4.24427829291335,1240.3123288919742,1236.0680505990608,0.10944012535229099,-0.1897161784160991
2.440576230492197,4.2295035934216685,1240.3123288919742,1236.0828252985525,0.10632194496922805,-0.5135887357601687
2.472388955582233,4.21586246783977,1240.3123288919742,1236.0964664241344,0.10338538222354605,-0.8380634141182519
2.504201680672269,4.2034499041665185,1240.3123288919742,1236.1088789878077,0.10062170243565369,-1.1631574918155059
2.536014405762305,4.192365269737593,1240.3123288919742,1236.1199636222366,0.09802299821911786,-1.488887290471123
2.567827130852341,4.182712368207149,1240.3123288919742,1236.129616523767,0.09558212778948752,-1.8152679003968775
2.599639855942377,4.174599469810801,1240.3123288919742,1236.1377294221634,0.09329265846501465,-2.1423128769293447
2.6314525810324128,4.168139309212165,1240.3123288919742,1236.144189582762,0.09114881449953031,-2.4700339087310503
2.6632653061224487,4.163449044439176,1240.3123288919742,1236.148879847535,0.08914542844275233,-2.798440460323071
2.695078031212485,4.160650169518931,1240.3123288919742,1236.1516787224552,0.08727789527036678,-3.1275393925927704
2.726890756302521,4.1598683724816965,1240.3123288919742,1236.1524605194925,0.08554212856849402,2.825850740431492
2.758703481392557,4.16123332936786,1240.3123288919742,1236.1510955626063,0.08393451809719811,2.4953588680450256
2.790516206482593,4.1648784237954715,1240.3123288919742,1236.1474504681787,0.08245188809851053,2.1641736507431553
2.822328931572629,4.170940380528009,1240.3123288919742,1236.1413885114462,0.08109145575872313,1.8323026442212933
2.854141656662665,4.179558800335599,1240.3123288919742,1236.1327700916386,0.07985078928501856,1.4997579733783497
2.885954381752701,4.190875582331955,1240.3123288919742,1236.1214533096422,0.078727765115058,1.1665566575339816
2.917767106842737,4.205034218906803,1240.3123288919742,1236.1072946730674,0.07772052384657135,0.8327208768450592
2.949579831932773,4.222178947450175,1240.3123288919742,1236.090149944524,0.07682742455323255,0.49827816187578633
2.9813925570228093,4.242453742336011,1240.3123288919742,1236.0698751496382,0.07604699724307463,0.1632614882752234
3.013205282112845,4.2660011302207295,1240.3123288919742,1236.0463277617534,0.07537789331541517,-0.17229074043636133
3.045018007202881,4.2929608117176485,1240.3123288919742,1236.0193680802565,0.0748188339796,-0.508334836726678
3.076830732292917,4.323468073108643,1240.3123288919742,1235.9888608188655,0.07436855671086154,-0.8448221108029954
3.108643457382953,4.357651973097518,1240.3123288919742,1235.9546769188767,0.07402575993172085,-1.1816992967759063
3.140456182472989,4.395633291931745,1240.3123288919742,1235.9166956000424,0.07378904621797204,-1.518909123980744
3.172268907563025,4.437522233749178,1240.3123288919742,1235.874806658225,0.07365686443336485,-1.856391027687119
3.204081632653061,4.48341587797654,1240.3123288919742,1235.8289130139976,0.07362745129469232,-2.194081986601334
3.235894357743097,4.533395382351955,1240.3123288919742,1235.7789335096222,0.07369877295907623,-2.5319174679449743
3.2677070828331334,4.587522948866081,1240.3123288919742,1235.724805943108,0.07386846730990924,-2.8698324550272387
3.2995198079231693,4.6458385749615445,1240.3123288919742,1235.6664903170126,0.07413378770148513,3.0754227795384894
3.3313325330132053,4.708356625811348,1240.3123288919742,1235.6039722661628,0.07449154901102631,2.7375403444492923
3.3631452581032413,4.775062279647955,1240.3123288919742,1235.5372666123262,0.07493807694776514,2.3997654853127175
3.3949579831932772,4.845907916830811,1240.3123288919742,1235.4664209751434,0.07546916168871927,2.062154313951211
3.426770708283313,4.920809544525127,1240.3123288919742,1235.391519347449,0.0760800170545988,1.7247581483348258
3.458583433373349,4.999643371975708,1240.3123288919742,1235.3126855199985,0.07676524660784972,1.3876226445937891
3.490396158463385,5.082242675738144,1240.3123288919742,1235.230086216236,0.07751881824349507,1.050787046953738
3.522208883553421,5.168395118651006,1240.3123288919742,1235.1439337733232,0.07833404904058978,0.714283567764956
3.554021608643457,5.257840709299671,1240.3123288919742,1235.0544881826745,0.07920360232842964,0.3781369032328482
3.5858343337334935,5.350270608215851,1240.3123288919742,1234.9620582837583,0.08011949907007085,0.04236388432830494
3.6176470588235294,5.445327000693396,1240.3123288919742,1234.8670018912808,0.0810731457426638,-0.29302674292576586
3.6494597839135654,5.542604261182078,1240.3123288919742,1234.769724630792,0.08205538086167803,-0.6280344177469074
3.6812725090036014,5.641651627923238,1240.3123288919742,1234.670677264051,0.08305654211578507,-0.9626667582905837
3.7130852340936373,5.7419775861133076,1240.3123288919742,1234.5703513058609,0.08406655571635867,-1.2969394631463944
3.7448979591836733,5.8430561212012435,1240.3123288919742,1234.469272770773,0.08507504899557158,-1.6308761353704868
3.7767106842737093,5.94433494959776,1240.3123288919742,1234.3679939423764,0.08607148650051479,-1.9645080430649362
3.8085234093637452,6.045245762031755,1240.3123288919742,1234.2670831299424,0.08704532884017908,-2.297873828908571
3.840336134453781,6.14521642669979,1240.3123288919742,1234.1671124652744,0.08798621238485073,-2.6310191787596247
3.8721488595438176,6.243684998725257,1240.3123288919742,1234.068643893249,0.08888414665866311,-2.963996456673554
3.9039615846338536,6.340115274926575,1240.3123288919742,1233.9722136170476,0.08972972499530744,2.9863209966163904
3.9357743097238895,6.434013525756882,1240.3123288919742,1233.8783153662173,0.09051434285296601,2.6534980577943306
3.9675870348139255,6.524945938221663,1240.3123288919742,1233.7873829537525,0.09123041722375042,2.320650117940117
3.9993997599039615,6.612556223631145,1240.3123288919742,1233.699772668343,0.09187159993527907,1.9877023450245268
4.031212484993997,6.696582790684715,1240.3123288919742,1233.6157461012895,0.09243297741540296,1.6545755295445772
4.063025210084033,6.776874864423917,1240.3123288919742,1233.5354540275503,0.09291124972572434,1.321186683919404
4.09483793517407,6.853406949003329,1240.3123288919742,1233.4589219429708,0.09330488236745656,0.9874497203000787
4.126650660264105,6.92629108761821,1240.3123288919742,1233.386037804356,0.09361422547260059,0.6532762279287946
4.158463385354142,6.995786463010745,1240.3123288919742,1233.3165424289634,0.09384159641226056,0.318576374513145
4.190276110444177,7.062305999930686,1240.3123288919742,1233.2500228920435,0.09399132344058807,-0.016740041272062692
4.222088835534214,7.1264197670284375,1240.3123288919742,1233.1859091249457,0.0940697495839906,-0.3527623575983578
4.25390156062425,7.188855118493848,1240.3123288919742,1233.1234737734803,0.09408519741767316,-0.6895776095231229
4.285714285714286,7.250493653441026,1240.3123288919742,1233.0618352385331,0.09404789650474689,-1.027268856457495
4.317527010804321,7.3123651926996445,1240.3123288919742,1232.9999636992745,0.09396987600923384,-1.3659132594603502
4.3493397358943575,7.375639069557565,1240.3123288919742,1232.9366898224166,0.09386482529299502,-1.7055799030277523
4.381152460984394,7.441613097165373,1240.3123288919742,1232.8707157948088,0.09374792519322439,-2.046327374494544
4.4129651860744294,7.5117006081691216,1240.3123288919742,1232.800628283805,0.09363565224259435,-2.3882011395530847
4.444777911164466,7.587415962197156,1240.3123288919742,1232.724912929777,0.0935455574875583,-2.731230784781776
4.476590636254501,7.670358887330167,1240.3123288919742,1232.641970004644,0.09349602097325861,-3.075427236348789
4.508403361344538,7.762197968010923,1240.3123288919742,1232.5501309239633,0.09350598260607476,2.8624052017334334
4.540216086434573,7.864653520552565,1240.3123288919742,1232.4476753714216,0.09359465017450258,2.5159299564469997
4.57202881152461,7.979480015718309,1240.3123288919742,1232.3328488762559,0.09378118595224785,2.168391827885517
4.603841536614646,8.108448122814934,1240.3123288919742,1232.2038807691592,0.09408437457959684,1.8198767851422089
4.635654261704682,8.253326367959971,1240.3123288919742,1232.0590025240142,0.09452227674986073,1.4704972987040206
4.667466986794718,8.41586232638383,1240.3123288919742,1231.8964665655903,0.09511187540226386,1.1203911843435188
4.699279711884754,8.597763209667846,1240.3123288919742,1231.7145656823063,0.09586872329327546,0.7697191612628873
4.73109243697479,8.800675667679116,1240.3123288919742,1231.511653224295,0.09680660255294825,0.4186611279460425
4.7629051620648255,9.026164604844325,1240.3123288919742,1231.2861642871298,0.09793720770111328,0.06741128580132287
4.794717887154862,9.275690813909478,1240.3123288919742,1231.0366380780647,0.09926986327954226,-0.2838276321303986
4.826530612244897,9.550587259554959,1240.3123288919742,1230.7617416324192,0.10081128563926645,-0.6348506638158997
4.858343337334934,9.852033900832566,1240.3123288919742,1230.4602949911416,0.10256539566374441,-0.9854570229797095
4.89015606242497,10.181031026513665,1240.3123288919742,1230.1312978654605,0.10453318572241048,-1.335456164646984
4.921968787515006,10.538371191642682,1240.3123288919742,1229.7739577003315,0.10671264052321397,-1.684673114102883
4.953781512605042,10.92460998637739,1240.3123288919742,1229.3877189055968,0.10909870839431578,-2.032952753115141
4.985594237695078,11.340036037787286,1240.3123288919742,1228.972292854187,0.11168331739546514,-2.380162878342022
5.017406962785114,11.784640837845927,1240.3123288919742,1228.5276880541282,0.11445542984275134,-2.726195976371424
5.04921968787515,12.258089200070117,1240.3123288919742,1228.054239691904,0.1174011293635116,-3.070969777693696
5.081032412965186,12.759691363575257,1240.3123288919742,1227.552637528399,0.12050373626970733,2.868758563783894
5.112845138055222,13.288377973588695,1240.3123288919742,1227.0239509183855,0.12374394945577481,2.526652611024605
5.144657863145258,13.842679354631855,1240.3123288919742,1226.4696495373423,0.12710001570856375,2.1859104761391417
5.176470588235294,14.42071063599451,1240.3123288919742,1225.8916182559797,0.1305479297753911,1.8465259703343582
5.20828331332533,15.020164365441815,1240.3123288919742,1225.2921645265324,0.13406167034517444,1.5084764739507384
5.240096038415366,15.638312231822056,1240.3123288919742,1224.6740166601521,0.13761347793081755,1.1717255157246484
5.271908763505402,16.272017387494543,1240.3123288919742,1224.0403115044796,0.14117418029211937,0.8362252426002884
5.303721488595438,16.917758599178114,1240.3123288919742,1223.394570292796,0.1447135694285589,0.5019186948908054
5.335534213685474,17.571667051593977,1240.3123288919742,1222.7406618403802,0.14820083135126655,0.16874183730944334
5.36734693877551,18.22957608554998,1240.3123288919742,1222.0827528064242,0.15160502599506775,-0.16337467465713948
5.399159663865546,18.887083490253417,1240.3123288919742,1221.4252454017208,0.1548956100639945,-0.49450399183894844
5.430972388955582,19.53962522568372,1240.3123288919742,1220.7727036662905,0.1580429907418071,-0.8247218158087926
5.4627851140456185,20.182558678899568,1240.3123288919742,1220.1297702130746,0.1610190935563266,-1.1541053654323532
5.494597839135654,20.811252825538986,1240.3123288919742,1219.5010760664352,0.16379792381801236,-1.4827325359516719
5.52641056422569,21.42118204838971,1240.3123288919742,1218.8911468435845,0.1663560984923076,-1.8106812201816607
5.558223289315726,22.008019929974807,1240.3123288919742,1218.3043089619994,0.16867332454614223,-2.1380287630538484
5.590036014405762,22.567729143499037,1240.3123288919742,1217.7445997484751,0.17073280099213708,-2.4648515239567845
5.621848739495798,23.09664365138042,1240.3123288919742,1217.2156852405938,0.17252152506890528,-2.7912245253310544
5.653661464585834,23.59153978806353,1240.3123288919742,1216.7207891039106,0.1740304880159677,-3.117221170173865
5.68547418967587,24.04969342662548,1240.3123288919742,1216.2626354653487,0.1752547522628602,2.8402722921405448
5.717286914765906,24.468921249837877,1240.3123288919742,1215.8434076421363,0.1761934089127923,2.514815718699023
5.749099639855943,24.84760508680256,1240.3123288919742,1215.4647238051716,0.17684942143760746,2.189527059668976
5.780912364945978,25.184699246183072,1240.3123288919742,1215.127629645791,0.17722936781332344,1.864341240699495
5.812725090036015,25.479721688255722,1240.3123288919742,1214.8326072037185,0.1773430983397467,1.5391955532906951
5.84453781512605,25.732730655650357,1240.3123288919742,1214.5795982363238,0.1772033297268181,1.2140297140632883
5.8763505402160865,25.94428897338412,1240.3123288919742,1214.36803991859,0.1768251975482548,0.8887859040884807
5.908163265306122,26.115418605195828,1240.3123288919742,1214.1969102867783,0.17622578893634408,0.5634087925097453
5.939975990396158,26.247548213324308,1240.3123288919742,1214.0647806786499,0.17542367567745717,0.23784554905288405
5.971788715486194,26.34245643257009,1240.3123288919742,1213.969872459404,0.174438465040114,-0.08795414963556332
6.00360144057623,26.402213372030246,1240.3123288919742,1213.910115519944,0.17329038214915907,-0.4140381146637205
6.035414165666267,26.429122543128415,1240.3123288919742,1213.8832063488458,0.17199989392060303,-0.740451635396277
6.067226890756302,26.425665026008573,1240.3123288919742,1213.8866638659656,0.1705873808433952,-1.067237460790024
