k,deltaD,D_base,D_harmonic,amplitude,phase
0.5,18.71795768367565,698.4162300498047,679.698272366129,30.30282145629218,-0.21266734017584946
0.531812725090036,18.694653232004043,698.4162300498047,679.7215768178006,25.243825558143673,-0.5263541328859002
0.563625450180072,18.670063956716376,698.4162300498047,679.7461660930883,21.260004127948175,-0.8401027258192179
0.595438175270108,18.644218536740254,698.4162300498047,679.7720115130644,18.07984552490844,-1.1539171612388153
0.6272509003601441,18.617147720324738,698.4162300498047,679.7990823294799,15.510172263339832,-1.4678015411340757
0.65906362545018,18.58888439652287,698.4162300498047,679.8273456532818,13.410986636796572,-1.7817600306270898
0.690876350540216,18.559463671401545,698.4162300498047,679.8567663784031,11.679141080243108,-2.0957968613144007
0.7226890756302521,18.52892294920821,698.4162300498047,679.8873071005964,10.23749742518109,-2.409916334542173
0.7545018007202882,18.49730201853049,698.4162300498047,679.9189280312742,9.027583518461368,-2.7241228246055287
0.7863145258103241,18.464643143679496,698.4162300498047,679.9515869061252,8.00452727909179,-3.0384207818831044
0.8181272509003601,18.43099116139308,698.4162300498047,679.9852388884116,7.133503348835925,2.9303705712953843
0.8499399759903962,18.396393583005192,698.4162300498047,680.0198364667995,6.38720258623604,2.615876008979206
0.8817527010804321,18.360900702285107,698.4162300498047,680.0553293475195,5.744004702602744,2.3012761418353302
0.9135654261704682,18.324565709047988,698.4162300498047,680.0916643407567,5.186641629308424,1.9865661857185037
0.9453781512605042,18.287444808725695,698.4162300498047,680.128785241079,4.70120817919395,1.671741266294387
0.9771908763505401,18.249597348030647,698.4162300498047,680.166632701774,4.276421680960191,1.3567964166557709
1.0090036014405763,18.211085946913954,698.4162300498047,680.2051441028907,3.9030622477600323,1.041726575141013
1.0408163265306123,18.171976636913996,698.4162300498047,680.2442534128907,3.573545565872565,0.7265265833839334
1.0726290516206483,18.13233900608259,698.4162300498047,680.2838910437221,3.2815939192274457,0.41119118462808724
1.1044417767106842,18.092246350621963,698.4162300498047,680.3239836991827,3.0219807453198686,0.09571502234159737
1.1362545018007202,18.051775833357397,698.4162300498047,680.3644542164473,2.790330733363962,-0.21990736082627332
1.1680672268907561,18.01100864917953,698.4162300498047,680.4052214006251,2.5829622362687745,-0.5356815237029701
1.1998799519807923,17.970030197551978,698.4162300498047,680.4461998522527,2.396762178490722,-0.851613126814252
1.2316926770708283,17.928930262179165,698.4162300498047,680.4872997876255,2.229086109525099,-1.1677079321194686
1.2635054021608643,17.887803197903622,698.4162300498047,680.528426851901,2.077677854844176,-1.4839718021970885
1.2953181272509005,17.8467481248681,698.4162300498047,680.5694819249366,1.940604543904455,-1.8004106988209658
1.3271308523409364,17.80586912995011,698.4162300498047,680.6103609198545,1.8162037811433476,-2.1170306808550587
1.3589435774309724,17.765275475455724,698.4162300498047,680.6509545743489,1.7030404645146056,-2.4338379013935105
1.3907563025210083,17.725081814986424,698.4162300498047,680.6911482348182,1.5998713132390843,-2.750838604063739
1.4225690276110443,17.68540841636218,698.4162300498047,680.7308216334425,1.5056155897994283,-3.0680391184068196
1.4543817527010803,17.646381391434034,698.4162300498047,680.7698486583706,1.4193308249466028,2.897739452937757
1.4861944777911165,17.608132932528633,698.4162300498047,680.808097117276,1.3401926037742378,2.5801200122645866
1.5180072028811524,17.570801555206117,698.4162300498047,680.8454284945985,1.2674776639436542,2.262281317850084
1.5498199279711884,17.534532346932565,698.4162300498047,680.8816977028721,1.200549707558362,1.9442167645343034
1.5816326530612244,17.49947722114348,698.4162300498047,680.9167528286612,1.138847445993028,1.625919701646303
1.6134453781512605,17.46579517609382,698.4162300498047,680.9504348737108,1.0818744898000396,1.3073834453147
1.6452581032412965,17.433652557737787,698.4162300498047,680.9825774920669,1.029190769257165,0.9886012924673903
1.6770708283313325,17.40322332574226,698.4162300498047,681.0130067240624,0.9804052295734358,0.6695665366455278
1.7088835534213684,17.374689321597316,698.4162300498047,681.0415407282073,0.9351695914635392,0.35027248575943143
1.7406962785114046,17.348240537568245,698.4162300498047,681.0679895122364,0.8931730053058032,0.03071248191230332
1.7725090036014406,17.32407538507016,698.4162300498047,681.0921546647345,0.854137457325571,-0.28912007658493255
1.8043217286914766,17.302400960783643,698.4162300498047,681.113829089021,0.8178138107292308,-0.6092317108899031
1.8361344537815125,17.283433308611052,698.4162300498047,681.1327967411936,0.78397838460805,-0.9296288348869932
1.8679471788715485,17.267397675272832,698.4162300498047,681.1488323745318,0.7524299896697051,-1.2503177259308067
1.8997599039615847,17.254528757038088,698.4162300498047,681.1617012927666,0.7229873531543377,-1.571304492994398
1.9315726290516206,17.245070934753926,698.4162300498047,681.1711591150507,0.6954868762209311,-1.8925950421628221
1.9633853541416566,17.239278493953634,698.4162300498047,681.176951555851,0.6697806761064913,-2.2141950394392893
1.9951980792316926,17.23741582642606,698.4162300498047,681.1788142233786,0.6457348728190186,-2.536109870862917
2.0270108043217285,17.23975760916892,698.4162300498047,681.1764724406357,0.6232280863200896,-2.8583445999761152
2.0588235294117645,17.246588956194273,698.4162300498047,681.1696410936104,0.6021501153078592,3.102281384454784
2.090636254501801,17.25820553809524,698.4162300498047,681.1580245117094,0.5824007730195179,2.7793931872525124
2.1224489795918364,17.274913663767165,698.4162300498047,681.1413163860375,0.5638888590800436,2.4561722996733653
2.154261704681873,17.29703031804297,698.4162300498047,681.1191997317617,0.5465312494537143,2.132615422428607
2.186074429771909,17.324883148395543,698.4162300498047,681.0913469014091,0.5302520891084129,1.8087198262391948
2.2178871548619448,17.358810393190197,698.4162300498047,681.0574196566145,0.5149820741581661,1.4844834064273233
2.2496998799519807,17.399160743273796,698.4162300498047,681.0170693065309,0.5006578120757074,1.1599047382190344
2.2815126050420167,17.446293127985427,698.4162300498047,680.9699369218192,0.4872212501165344,0.8349831321605032
2.3133253301320527,17.500576415950036,698.4162300498047,680.9156536338546,0.4746191634169404,0.5097186889564651
2.3451380552220886,17.562389020305318,698.4162300498047,680.8538410294993,0.4628026953554157,0.184112352943932
2.376950780312125,17.632118397304453,698.4162300498047,680.7841116525002,0.4517269437318861,-0.14183403667863848
2.4087635054021606,17.710160426602215,698.4162300498047,680.7060696232024,0.4413505871492414,-0.4681176978347096
2.440576230492197,17.796918660919687,698.4162300498047,680.619311388885,0.4316355466959637,-0.7947348618130377
2.472388955582233,17.89280343231735,698.4162300498047,680.5234266174873,0.42254667864747475,-1.1216807348847044
2.504201680672269,17.998230801938803,698.4162300498047,680.4179992478659,0.41405149444148653,-1.4489494664578133
2.536014405762305,18.113621339927022,698.4162300498047,680.3026087098776,0.4061199046519657,-1.7765341249616684
2.567827130852341,18.23939872228584,698.4162300498047,680.1768313275188,0.39872398409847115,-2.104426682655118
2.599639855942377,18.375988131819554,698.4162300498047,680.0402419179851,0.39183775559234635,-2.43261801052675
2.6314525810324128,18.523814451037197,698.4162300498047,679.8924155987675,0.3854369901456714,-2.7610978843941365
2.6632653061224487,18.683300236082687,698.4162300498047,679.732929813722,0.37949902176064043,-3.0898550032131467
2.695078031212485,18.854863462497747,698.4162300498047,679.5613665873069,0.37400257518186386,2.864308286705374
2.726890756302521,19.038915035972536,698.4162300498047,679.3773150138321,0.3689276052371319,2.535034717789127
2.758703481392557,19.23585606435472,698.4162300498047,679.1803739854499,0.36425514661798747,2.2055238848059573
2.790516206482593,19.446074891108765,698.4162300498047,678.9701551586959,0.3599671731641831,1.8757909421291719
2.822328931572629,19.669943895305664,698.4162300498047,678.746286154499,0.35604646591852224,1.5458518223807283
2.854141656662665,19.907816069109458,698.4162300498047,678.5084139806952,0.35247648941445714,1.2157231336919307
2.885954381752701,20.160021390734528,698.4162300498047,678.2562086590701,0.34924127584927045,0.885422043391801
2.917767106842737,20.42686301898584,698.4162300498047,677.9893670308188,0.3463253169831656,0.5549661490748813
2.949579831932773,20.708613344778996,698.4162300498047,677.7076167050257,0.3437134637891667,0.22437333831991152
2.9813925570228093,21.005509945417543,698.4162300498047,677.4107201043871,0.341390834060572,-0.1063383613599824
3.013205282112845,21.31775149874352,698.4162300498047,677.0984785510611,0.3393427283598491,-0.4371509404665059
3.045018007202881,21.645493726370887,698.4162300498047,676.7707363234338,0.3375545548629494,-0.7680465712359418
3.076830732292917,21.988845447721474,698.4162300498047,676.4273846020832,0.3360117638107401,-1.0990077747773797
3.108643457382953,22.347864839057024,698.4162300498047,676.0683652107476,0.3346997924188444,-1.4300175890968287
3.140456182472989,22.722556003571754,698.4162300498047,675.6936740462329,0.3336040212095718,-1.7610597353417559
3.172268907563025,23.112865969123845,698.4162300498047,675.3033640806808,0.33270974280467436,-2.0921187795177105
3.204081632653061,23.51868223849442,698.4162300498047,674.8975478113102,0.3320021442433162,-2.423180286898785
3.235894357743097,23.939831022235012,698.4162300498047,674.4763990275696,0.3314663038524608,-2.7542309663763627
3.2677070828331334,24.376076285084878,698.4162300498047,674.0401537647198,0.33108720358327903,-3.085258802067206
3.2995198079231693,24.827119732694086,698.4162300498047,673.5891103171106,0.3308497575253026,2.8669321375474706
3.3313325330132053,25.292601854898862,698.4162300498047,673.1236281949058,0.33073885700933353,2.535980372238725
3.3631452581032413,25.772104124417524,698.4162300498047,672.6441259253871,0.3307394323068072,2.2050787742204814
3.3949579831932772,26.26515242503342,698.4162300498047,672.1510776247712,0.33083653042877176,1.8742332821499688
3.426770708283313,26.771221751152666,698.4162300498047,671.645008298652,0.3310154079338694,1.5434481741042596
3.458583433373349,27.28974218158089,698.4162300498047,671.1264878682238,0.3312616369931736,1.2127260575142982
3.490396158463385,27.820106085602674,698.4162300498047,670.596123964202,0.3315612222644403,0.8820678838236208
3.522208883553421,28.36167647085233,698.4162300498047,670.0545535789523,0.3319007254430255,0.5514729879359389
3.554021608643457,28.9137963324024,698.4162300498047,669.5024337174023,0.332267393734414,0.22093915194903332
3.5858343337334935,29.475798813977008,698.4162300498047,668.9404312358276,0.33264928799108046,-0.10953730792224486
3.6176470588235294,30.04701794842572,698.4162300498047,668.3692121013789,0.3330354059301922,-0.4399614329328673
3.6494597839135654,30.62679970881777,698.4162300498047,667.7894303409869,0.3334157957466021,-0.7703394941865979
3.6812725090036014,31.21451307670702,698.4162300498047,667.2017169730976,0.3337816555908243,-1.1006788486224857
3.7130852340936373,31.809560822543176,698.4162300498047,666.6066692272615,0.33412541480686964,-1.430987781878058
3.7448979591836733,32.411389696277524,698.4162300498047,666.0048403535271,0.3344407935077437,-1.761275341641139
3.7767106842737093,33.01949974415447,698.4162300498047,665.3967303056502,0.3347228379696065,-2.0915511653107015
3.8085234093637452,33.63345249955421,698.4162300498047,664.7827775502504,0.33496793038894235,-2.4218253058449193
3.840336134453781,34.25287783944566,698.4162300498047,664.163352210359,0.33517377269300763,-2.752108059576429
3.8721488595438176,34.8774793505288,698.4162300498047,663.5387506992759,0.3353393452376485,-3.082409799527147
3.9039615846338536,35.50703810680511,698.4162300498047,662.9091919429995,0.33546484228380186,2.870444489803551
3.9357743097238895,36.14141481927095,698.4162300498047,662.2748152305337,0.335551587041774,2.5400741304291303
3.9675870348139255,36.780550374944596,698.4162300498047,661.6356796748601,0.3356019297561257,2.2096547272207205
3.9993997599039615,37.42446483325807,698.4162300498047,660.9917652165466,0.33561913274184413,1.8791770574822115
4.031212484993997,38.07325499054434,698.4162300498047,660.3429750592603,0.3356072464674353,1.5486324804993565
4.063025210084033,38.72709065626805,698.4162300498047,659.6891393935366,0.33557098072758434,1.2180130235825557
4.09483793517407,39.386209807193836,698.4162300498047,659.0300202426108,0.33551557469061666,0.8873114518672746
4.126650660264105,40.05091279798535,698.4162300498047,658.3653172518193,0.33544666918917854,0.5565213223660249
4.158463385354142,40.72155580969229,698.4162300498047,657.6946742401124,0.33537018409732505,0.22563702308921585
4.190276110444177,41.398543712560354,698.4162300498047,657.0176863372443,0.3352922030544169,-0.10534620171201711
4.222088835534214,42.08232250829167,698.4162300498047,656.333907541513,0.3352188672013731,-0.4364322389756523
4.25390156062425,42.77337150101903,698.4162300498047,655.6428585487856,0.3351562790260545,-0.7676241056459322
4.285714285714286,43.47219532760823,698.4162300498047,654.9440347221964,0.3351104168995659,-1.0989239575747842
4.317527010804321,44.179315957930044,698.4162300498047,654.2369140918746,0.33508706044272374,-1.430333107233478
4.3493397358943575,44.895264755844096,698.4162300498047,653.5209652939606,0.33509172650088404,-1.7618520490242162
4.381152460984394,45.62057467270381,698.4162300498047,652.7956553771008,0.33512961522761103,-2.0934804910672287
4.4129651860744294,46.35577262808283,698.4162300498047,652.0604574217218,0.33520556557924375,-2.4252173924364806
4.444777911164466,47.10137211750089,698.4162300498047,651.3148579323038,0.33532401939547013,-2.7570610049179396
4.476590636254501,47.857866074518256,698.4162300498047,650.5583639752864,0.335488993175112,-3.089008918462382
4.508403361344538,48.62572000471255,698.4162300498047,649.7905100450921,0.33570405664054165,2.8621271975834874
4.540216086434573,49.405365401670906,698.4162300498047,649.0108646481337,0.3359723172072397,2.5299803150456195
4.57202881152461,50.19719345007729,698.4162300498047,648.2190365997274,0.3362964095267164,2.1977398375686734
4.603841536614646,51.00154901801716,698.4162300498047,647.4146810317875,0.33667848934232475,1.8654103182715887
4.635654261704682,51.81872493948072,698.4162300498047,646.5975051103239,0.3371202309807152,1.5329967125788282
4.667466986794718,52.648956588453984,698.4162300498047,645.7672734613507,0.3376228278906335,1.2005043235793413
4.699279711884754,53.492416747678135,698.4162300498047,644.9238133021265,0.33818699573063576,0.8679387474860703
4.73109243697479,54.34921077783031,698.4162300498047,644.0670192719743,0.3388129775945599,0.5353058195571343
4.7629051620648255,55.21937209633029,698.4162300498047,643.1968579534744,0.33950055104567256,0.20261156081165094
4.794717887154862,56.10285797894676,698.4162300498047,642.3133720708579,0.34024903670573914,-0.13013787415459943
4.826530612244897,56.99954570164698,698.4162300498047,641.4166843481577,0.3410573082127673,-0.4629362479747969
4.858343337334934,57.90922904456397,698.4162300498047,640.5070010052407,0.34192380342059764,-0.7957772896873438
4.89015606242497,58.83161518430188,698.4162300498047,639.5846148655028,0.34284653676455157,-1.1286547420605306
4.921968787515006,59.76632200496226,698.4162300498047,638.6499080448424,0.3438231127604662,-1.46156240687461
4.953781512605042,60.71287586206313,698.4162300498047,637.7033541877415,0.3448507406398121,-1.7944941880023695
4.985594237695078,61.670709836831065,698.4162300498047,636.7455202129736,0.3459262501518255,-2.12744413216322
5.017406962785114,62.639162521011826,698.4162300498047,635.7770675287928,0.34704610858510115,-2.4604064672610333
5.04921968787515,63.61747737426526,698.4162300498047,634.7987526755394,0.3482064390764663,-2.793375638250633
5.081032412965186,64.60480269726497,698.4162300498047,633.8114273525397,0.3494030402846456,-3.126346340513061
5.112845138055222,65.60019226368115,698.4162300498047,632.8160377861235,0.3506314075106263,2.823871756427419
5.144657863145258,66.60260665319674,698.4162300498047,631.8136233966079,0.351886755346141,2.490912751723411
5.176470588235294,67.6109153254854,698.4162300498047,630.8053147243193,0.35316404192655537,2.157966330185579
5.20828331332533,68.62389947159147,698.4162300498047,629.7923305782132,0.35445799485489743,1.8250365097407988
5.240096038415366,69.64025567426779,698.4162300498047,628.7759743755369,0.3557631388498448,1.4921269269526638
5.271908763505402,70.65860040258008,698.4162300498047,627.7576296472246,0.3570738251523753,1.1592408174086808
5.303721488595438,71.67747535831995,698.4162300498047,626.7387546914847,0.35838426270329565,0.8263809980327482
5.335534213685474,72.69535368258539,698.4162300498047,625.7208763672193,0.35968855107714987,0.49354985120781664
5.36734693877551,73.71064702019657,698.4162300498047,624.7055830296081,0.3609807151267812,0.16074931060633638
5.399159663865546,74.72171342755928,698.4162300498047,623.6945166222454,0.36225474125727675,-0.1720191513518128
5.430972388955582,75.72686609621883,698.4162300498047,622.6893639535858,0.3635046152080667,-0.5047545344659186
5.4627851140456185,76.72438284982377,698.4162300498047,621.6918471999809,0.36472436117771284,-0.8374563201608062
5.494597839135654,77.71251635675708,698.4162300498047,620.7037136930476,0.36590808207798137,-1.1701244793070253
5.52641056422569,78.68950498457036,698.4162300498047,619.7267250652343,0.3670500006524151,-1.5027594783822997
5.558223289315726,79.65358420590019,698.4162300498047,618.7626458439045,0.3681445011410609,-1.835362283852861
5.590036014405762,80.60299844917154,698.4162300498047,617.8132316006331,0.36918617111824387,-2.1679343646046076
5.621848739495798,81.53601327154263,698.4162300498047,616.880216778262,0.37016984307609413,-2.5004776922066054
5.653661464585834,82.45092771680606,698.4162300498047,615.9653023329986,0.37109063527493524,-2.8329947387480123
5.68547418967587,83.34608670781506,698.4162300498047,615.0701433419896,0.37194399133497663,3.1176968352248413
5.717286914765906,84.21989331209716,698.4162300498047,614.1963367377075,0.3727257180046586,2.785222959910567
5.749099639855943,85.07082071123295,698.4162300498047,613.3454093385717,0.3734320205124171,2.4527650106158236
5.780912364945978,85.89742369983901,698.4162300498047,612.5188063499656,0.3740595348932409,2.120318594010403
5.812725090036015,86.69834953912505,698.4162300498047,611.7178805106796,0.3746053566820233,1.7878788742692975
5.84453781512605,87.47234799339208,698.4162300498047,610.9438820564126,0.3750670653844833,1.4554405962855175
5.8763505402160865,88.21828038572596,698.4162300498047,610.1979496640787,0.3754427441751054,1.122998113336014
5.908163265306122,88.93512752166419,698.4162300498047,609.4811025281405,0.37573099433080454,0.7905454193283808
5.939975990396158,89.62199634666365,698.4162300498047,608.794233703141,0.37593094398881144,0.45807618566382535
5.971788715486194,90.2781252244855,698.4162300498047,608.1381048253191,0.37604225091617055,0.12558380264793642
6.00360144057623,90.90288774866065,698.4162300498047,607.513342301144,0.376065099093753,-0.20693857473428637
6.035414165666267,91.4957950273407,698.4162300498047,606.920435022464,0.3760001890464315,-0.5394979769820979
6.067226890756302,92.0564964122193,698.4162300498047,606.3597336375854,0.3758487219883131,-0.8721015666057593
6.099039615846339,92.5847786738459,698.4162300498047,605.8314513759587,0.37561237799263686,-1.2047565815577177
6.130852340936374,93.08056365760126,698.4162300498047,605.3356663922034,0.3752932885346178,-1.5374702762179941
6.162665066026411,93.54390448560196,698.4162300498047,604.8723255642027,0.37489400388620536,-1.8702498606796454
