"k","deltaD","D_base","D_harmonic","amplitude","phase"
0.5,0.0477397159775705,509.778802977689,509.731063261711,0.269876777882256,2.40576003135497
0.531812725090036,0.047083477402964,509.778802977689,509.731719500286,0.228391839327715,2.06930749975815
0.563625450180072,0.0463904359675098,509.778802977689,509.732412541721,0.19539754223426,1.73418763687583
0.595438175270108,0.0456612820586884,509.778802977689,509.73314169563,0.168782790487168,1.40037470205755
0.627250900360144,0.0448967560023448,509.778802977689,509.733906221686,0.14704093999703,1.06783946427766
0.65906362545018,0.0440976498338728,509.778802977689,509.734705327855,0.129076522473244,0.736550426623305
0.690876350540216,0.0432648091963301,509.778802977689,509.735538168492,0.114079593608402,0.406474889939131
0.722689075630252,0.0423991353706015,509.778802977689,509.736403842318,0.101442190000457,0.0775798655459181
0.754501800720288,0.0415015874431219,509.778802977689,509.737301390246,0.0907016479761152,-0.250167148524249
0.786314525810324,0.0405731846171307,509.778802977689,509.738229793072,0.0815014358748261,-0.576797511374855
0.81812725090036,0.0396150086746161,509.778802977689,509.739187969014,0.0735636329916935,-0.902340885470019
0.849939975990396,0.0386282065931027,509.778802977689,509.740174771096,0.0666692946187439,-1.22682476780343
0.881752701080432,0.0376139933272839,509.778802977689,509.741188984361,0.0606442457830263,-1.55027408882997
0.913565426170468,0.0365736547620941,509.778802977689,509.742229322927,0.0553486691610414,-1.87271086313024
0.945378151260504,0.0355085508435309,509.778802977689,509.743294426845,0.0506693821811365,-2.19415387655409
0.97719087635054,0.0344201188994475,509.778802977689,509.744382858789,0.046514044981944,-2.51461839571054
1.00900360144058,0.0333098771552613,509.778802977689,509.745493100534,0.0428067715222142,-2.83411588642831
1.04081632653061,0.0321794284570842,509.778802977689,509.746623549232,0.0394847718460462,3.13053157870738
1.07262905162065,0.0310304642117103,509.778802977689,509.747772513477,0.0364957601020936,2.8129503930793
1.10444177671068,0.0298647685530682,509.778802977689,509.748938209136,0.0337959368232877,2.49632758900604
1.13625450180072,0.028684222748268,509.778802977689,509.750118754941,0.0313484058479213,2.18066998007292
1.16806722689076,0.0274908098538731,509.778802977689,509.751312167835,0.0291219230732898,1.86598989384639
1.19987995198079,0.0262866196356981,509.778802977689,509.752516358053,0.0270899006408584,1.55230566639254
1.23169267707083,0.0250738537647521,509.778802977689,509.753729123924,0.0252296092817357,1.239642221837
1.26350540216086,0.0238548313049023,509.778802977689,509.754948146384,0.0235215355437171,0.928031755154769
1.2953181272509,0.0226319945047635,509.778802977689,509.756170983184,0.0219488609456218,0.617514538981468
1.32713085234094,0.0214079149118902,509.778802977689,509.757395062777,0.0204970377921922,0.308139878540628
1.35894357743097,0.0201852998227423,509.778802977689,509.758617677866,0.0191534421510207,-3.27574352275107e-05
1.39075630252101,0.0189669990882066,509.778802977689,509.759835978601,0.0179070888607494,-0.306932397437032
1.42256902761104,0.0177560122916134,509.778802977689,509.761046965397,0.0167483967716388,-0.612474982377552
1.45438175270108,0.0165554963164141,509.778802977689,509.762247481372,0.0156689949852188,-0.91656149301922
1.48619447779112,0.0153687733265429,509.778802977689,509.763434204362,0.0146615628523682,-1.21907574282434
1.51800720288115,0.0141993391764572,509.778802977689,509.764603638512,0.0137196980532726,-1.51988178636771
1.54981992797119,0.0130508722747891,509.778802977689,509.765752105414,0.012837808324025,-1.81882089390334
1.58163265306122,0.0119272429230932,509.778802977689,509.766875734766,0.0120110233920147,-2.1157080499677
1.61344537815126,0.0108325231515778,509.778802977689,509.767970454537,0.0112351244931964,-2.41032795363177
1.6452581032413,0.00977099707824891,509.778802977689,509.769031980611,0.0105064895075812,-2.70243053939887
1.67707082833133,0.00874717181409324,509.778802977689,509.770055805875,0.00982205228811337,-2.99172611539896
1.70888355342137,0.00776578894152635,509.778802977689,509.771037188747,0.00917927517248307,3.00530495473276
1.7406962785114,0.00683183659117503,509.778802977689,509.771971141098,0.00857613393383796,2.72267571924758
1.77250900360144,0.00595056214535816,509.778802977689,509.772852415543,0.00801111447777687,2.44400802592914
1.80432172869148,0.00512748559458487,509.778802977689,509.773675492094,0.00748322030656059,2.16979227179441
1.83613445378151,0.00436841357714002,509.778802977689,509.774434564112,0.00699198893952091,1.90056885806493
1.86794717887155,0.00367945412807558,509.778802977689,509.775123523561,0.00653751379510126,1.63691608546672
1.89975990396158,0.00306703216847382,509.778802977689,509.77573594552,0.00612046511510237,1.37942499071135
1.93157262905162,0.00253790576249457,509.778802977689,509.776265071926,0.00574209899733133,1.12865507073623
1.96338535414166,0.00209918317136726,509.778802977689,509.776703794517,0.00540423753345573,0.885064640250528
1.99519807923169,0.00175834073257874,509.778802977689,509.777044636956,0.00510919654814459,0.648912114251526
2.02701080432173,0.00152324159176942,509.778802977689,509.777279736097,0.00485963373140089,0.420132135420629
2.05882352941176,0.00140215531314425,509.778802977689,509.777400822376,0.00465829503326107,0.198204796515921
2.0906362545018,0.00140377839306893,509.778802977689,509.777399199296,0.00450765827296722,-0.017945036569677
2.12244897959184,0.00153725570152119,509.778802977689,509.777265721987,0.0044095125812755,-0.229967910214336
2.15426170468187,0.00181220286714279,509.778802977689,509.776990774822,0.00436455941231914,-0.439987013179693
2.18607442977191,0.00223872962720861,509.778802977689,509.776564248062,0.00437214763640977,-0.650369023166836
2.21788715486194,0.00282746415206248,509.778802977689,509.775975513537,0.00443023277211122,-0.863421786500722
2.24969987995198,0.00358957835163665,509.778802977689,509.775213399337,0.00453557783530437,-1.08111008301299
2.28151260504202,0.00453681416746576,509.778802977689,509.774266163521,0.00468412885383855,-1.3048710200631
2.31332533013205,0.00568151084206647,509.778802977689,509.773121466847,0.00487145085564721,-1.5355608553067
2.34513805522209,0.00703663315277936,509.778802977689,509.771766344536,0.00509311898929874,-1.77351163761118
2.37695078031213,0.0086158005856305,509.778802977689,509.770187177103,0.00534500449135341,-2.01864873044368
2.40876350540216,0.0104333174127191,509.778802977689,509.768369660276,0.00562344343770939,-2.27062228527597
2.4405762304922,0.0125042036241894,509.778802977689,509.766298774065,0.00592530718944189,-2.52892282838045
2.47238895558223,0.0148442266487336,509.778802977689,509.76395875104,0.00624800459455327,-2.79296889783486
2.50420168067227,0.0174699337802053,509.778802977689,509.761333043909,0.00658944419825869,-3.06216643487819
2.5360144057623,0.0203986852049525,509.778802977689,509.758404292484,0.00694797761841653,2.94724024279821
2.56782713085234,0.0236486875027708,509.778802977689,509.755154290186,0.00732233770978833,2.66940765210685
2.59963985594238,0.0272390274670897,509.778802977689,509.751563950222,0.00771157919655689,2.38799650667028
2.63145258103241,0.0311897060582282,509.778802977689,509.747613271631,0.00811502544372812,2.10342881525996
2.66326530612245,0.0355216722701925,509.778802977689,509.743281305419,0.00853222262052009,1.8160753745374
2.69507803121249,0.0402568566541959,509.778802977689,509.738546121035,0.00896290119422326,1.52625990510138
2.72689075630252,0.045418204195812,509.778802977689,509.733384773493,0.00940694406584208,1.23426397021991
2.75870348139256,0.0510297061974256,509.778802977689,509.727773271491,0.00986436042630238,0.940332001826362
2.79051620648259,0.0571164307631307,509.778802977689,509.721686546926,0.0103352643879859,0.644676070639261
2.82232893157263,0.0637045514257579,509.778802977689,509.715098426263,0.0108198575210019,0.3474802274623
2.85414165666266,0.0708213733880712,509.778802977689,509.707981604301,0.0113184145359009,0.0489043538910469
2.8859543817527,0.0784953567854245,509.778802977689,509.700307620903,0.0118312714729836,-0.250912477579012
2.91776710684274,0.0867561362958895,509.778802977689,509.692046841393,0.0123588158680321,-0.551849102260911
2.94957983193277,0.0956345363445621,509.778802977689,509.683168441344,0.0129014784594894,-0.853799774874579
2.98139255702281,0.105162581062302,509.778802977689,509.673640396626,0.0134597260817158,-1.15667204397618
3.01320528211285,0.115373498064116,509.778802977689,509.663429479625,0.0140340554539584,-1.46038494040538
3.04501800720288,0.126301715018485,509.778802977689,509.65250126267,0.0146249876270645,-1.76486743483664
3.07683073229292,0.137982847878561,509.778802977689,509.64082012981,0.0152330628918242,-2.07005712449182
3.10864345738295,0.150453679544,509.778802977689,509.628349298145,0.0158588359861388,-2.37589911424115
3.14045618247299,0.163752127622502,509.778802977689,509.615050850066,0.016502871464768,-2.68234506223976
3.17226890756303,0.177917199862804,509.778802977689,509.600885777826,0.0171657391166591,-2.98935236469894
3.20408163265306,0.192988935736707,509.778802977689,509.585814041952,0.0178480093321331,2.9863018488739
3.2358943577431,0.209008332570079,509.778802977689,509.569794645119,0.0185502483364482,2.67828008499925
3.26770708283313,0.226017254551039,509.778802977689,509.552785723138,0.0192730132184244,2.36979684304385
3.29951980792317,0.24405832290239,509.778802977689,509.534744654786,0.0200168466935879,2.06087782874985
3.33133253301321,0.26317478548151,509.778802977689,509.515628192207,0.0207822715512999,1.75154564293685
3.36314525810324,0.283410364089264,509.778802977689,509.4953926136,0.0215697847451028,1.44182011136529
3.39495798319328,0.30480907782561,509.778802977689,509.473993899863,0.0223798510955722,1.13171857057872
3.42677070828331,0.327415040943436,509.778802977689,509.451387936745,0.0232128965856118,0.82125611617867
3.45858343337335,0.351272233821533,509.778802977689,509.427530743867,0.0240693012398457,0.510445818996132
3.49039615846339,0.376424245930423,509.778802977689,509.402378731758,0.0249493915927952,0.199298913800365
3.52220888355342,0.402913989991987,509.778802977689,509.375888987697,0.0258534327651621,-0.112175035500882
3.55402160864346,0.430783386967164,509.778802977689,509.348019590722,0.0267816201839895,-0.423967990786073
3.58583433373349,0.460073022035601,509.778802977689,509.318729955653,0.0277340710008452,-0.736073311862853
3.61764705882353,0.49082177238563,509.778802977689,509.287981205303,0.0287108152825439,-1.04848564331949
3.64945978391357,0.52306640839862,509.778802977689,509.25573656929,0.0297117870711838,-1.36120081390563
3.6812725090036,0.556841170713483,509.778802977689,509.221961806975,0.0307368154342712,-1.67421574654019
3.71308523409364,0.592177326669628,509.778802977689,509.186625651019,0.031785615651026,-1.98752837727374
3.74489795918367,0.629102710766574,509.778802977689,509.149700266922,0.0328577807071192,-2.30113758172584
3.77671068427371,0.66764125500822,509.778802977689,509.111161722681,0.0339527732963022,-2.61504310767868
3.80852340936375,0.707812516317347,509.778802977689,509.070990461371,0.0350699185527264,-2.929245512643
3.84033613445378,0.749631209558572,509.778802977689,509.02917176813,0.0362083977610211,3.0394392018539
3.87214885954382,0.793106756069676,509.778802977689,508.985696221619,0.0373672433110301,2.72463841715432
3.90396158463385,0.838242858902561,509.778802977689,508.940560118786,0.0385453351789064,2.40953479411686
3.93577430972389,0.885037117161971,509.778802977689,508.893765860527,0.0397413992243442,2.09412509675246
3.96758703481393,0.933480692823025,509.778802977689,508.845322284866,0.0409540075932939,1.77840555130135
3.99939975990396,0.983558044124436,509.778802977689,508.795244933564,0.0421815815048141,1.46237189837359
4.031212484994,1.03524673999186,509.778802977689,508.743556237697,0.0434223966781822,1.14601944597936
4.06302521008403,1.0885173698565,509.778802977689,508.690285607832,0.0446745916206735,0.829343124043808
4.09483793517407,1.14333356262182,509.778802977689,508.635469415067,0.0459361789467402,0.512337540948582
4.12665066026411,1.19965212732581,509.778802977689,508.579150850363,0.0472050598353345,0.19499704258874
4.15846338535414,1.25742332621041,509.778802977689,508.521379651478,0.0484790416544474,-0.122684225623586
4.19027611044418,1.31659128841068,509.778802977689,508.462211689278,0.0497558586918426,-0.440712253439044
4.22208883553421,1.3770945693467,509.778802977689,508.401708408342,0.0510331958308915,-0.759093096832882
4.25390156062425,1.43886685717382,509.778802977689,508.339936120515,0.0523087149035476,-1.0778328052218
4.28571428571429,1.50183782343373,509.778802977689,508.276965154255,0.0535800833430788,-1.39693734469276
4.31752701080432,1.5659341104726,509.778802977689,508.212868867216,0.0548450046520393,-1.71641251719345
4.34933973589436,1.63108044343363,509.778802977689,508.147722534255,0.0561012501015386,-2.0362638757382
4.38115246098439,1.69720084988808,509.778802977689,508.081602127801,0.0573466909916322,-2.35649663579728
4.41296518607443,1.76421996567143,509.778802977689,508.014583012017,0.0585793307350134,-2.67711558316583
4.44477791116447,1.83206440146188,509.778802977689,507.946738576227,0.0597973359817977,-2.99812497874748
4.4765906362545,1.90066414130598,509.778802977689,507.878138836383,0.0609990659857879,2.96365684634021
4.50840336134454,1.96995394185097,509.778802977689,507.808849035838,0.0621830994246289,2.64185636150969
4.54021608643457,2.03987469964653,509.778802977689,507.738928278042,0.0633482579284001,2.31965678006714
4.57202881152461,2.11037475362667,509.778802977689,507.668428224062,0.0644936256427144,1.99705693049849
4.60384153661465,2.18141109082512,509.778802977689,507.597391886864,0.0656185642505406,1.67405666208244
4.63565426170468,2.25295042547521,509.778802977689,507.525852552214,0.066722722997746,1.35065694027929
4.66746698679472,2.32497012482634,509.778802977689,507.453832852862,0.0678060434053823,1.02685993742705
4.69927971188475,2.39745895909999,509.778802977689,507.381344018589,0.0688687585006759,0.702669116937408
4.73109243697479,2.47041765783695,509.778802977689,507.308385319852,0.0699113865520355,0.378089309049917
4.76290516206483,2.54385926020319,509.778802977689,507.234943717486,0.0709347194444188,0.0531267761055404
4.79471788715486,2.61780925239196,509.778802977689,507.160993725297,0.0719398059739975,-0.272210734750642
4.8265306122449,2.69230549083619,509.778802977689,507.086497486853,0.0729279304699716,-0.597913953519917
4.85834333733493,2.76739791529718,509.778802977689,507.011405062392,0.0739005872623171,-0.923972065960741
4.89015606242497,2.84314806083444,509.778802977689,506.935654916854,0.0748594516043187,-1.25037271071332
4.92196878751501,2.91962838202562,509.778802977689,506.859174595663,0.0758063477263109,-1.57710199655585
4.95378151260504,2.99692140648523,509.778802977689,506.781881571204,0.076743214741614,-1.90414454108746
4.98559423769508,3.07511873767089,509.778802977689,506.703684240018,0.0776720711479909,-2.23148353172692
5.01740696278511,3.15431992914375,509.778802977689,506.624483048545,0.0785949786695013,-2.5591008094328
5.04921968787515,3.23463125388935,509.778802977689,506.544171723799,0.0795140061666531,-2.8869769750011
5.08103241296519,3.31616439307271,509.778802977689,506.462638584616,0.0804311943097344,3.06809378997885
5.11284513805522,3.39903506875709,509.778802977689,506.379767908932,0.0813485216640036,2.73976234579623
5.14465786314526,3.48336164477746,509.778802977689,506.295441332911,0.082267872778654,2.4112362705972
5.17647058823529,3.56926371919923,509.778802977689,506.20953925849,0.0831910088067901,2.08253844865931
5.20828331332533,3.65686073072158,509.778802977689,506.121942246967,0.0841195411133394,1.75369218177395
5.24009603841537,3.74627060008123,509.778802977689,506.032532377608,0.0850549082538896,1.4247209842325
5.2719087635054,3.83760842603687,509.778802977689,505.941194551652,0.0859983566315364,1.09564837251498
5.30372148859544,3.93098525393833,509.778802977689,505.84781772375,0.0869509250623,0.766497653819871
5.33553421368547,4.02650693321266,509.778802977689,505.752296044476,0.0879134334036173,0.437291717654491
5.36734693877551,4.12427307837839,509.778802977689,505.65452989931,0.0888864753256229,0.108052834641597
5.39915966386555,4.22437614640654,509.778802977689,505.554426831282,0.0898704152321033,-0.22119753350569
5.43097238895558,4.32690064138211,509.778802977689,505.451902336307,0.0908653892676514,-0.550438909222671
5.46278511404562,4.43192245546965,509.778802977689,505.346880522219,0.0918713102801656,-0.879651956373414
5.49459783913565,4.53950835312145,509.778802977689,505.239294624567,0.0928878765438524,-1.20881861693631
5.52641056422569,4.64971560327888,509.778802977689,505.12908737441,0.0939145839878827,-1.53792222505698
5.55822328931573,4.76259176198988,509.778802977689,505.016211215699,0.0949507416202499,-1.86694759706403
5.59003601440576,4.87817460540219,509.778802977689,504.900628372287,0.0959954897859369,-2.19588109668425
5.6218487394958,4.99649221050799,509.778802977689,504.782310767181,0.097047820853885,-2.52471067531527
5.65366146458583,5.11756317833556,509.778802977689,504.661239799353,0.0981066018892447,-2.85342588779461
5.68547418967587,5.24139699155626,509.778802977689,504.537405986133,0.0991705988369027,3.10116742255433
5.71728691476591,5.36799449576239,509.778802977689,504.410808481926,0.100238501720107,2.7727059251126
5.74909963985594,5.49734849103936,509.778802977689,504.281454486649,0.101308950345006,2.444380695309
5.78091236494598,5.62944441799527,509.778802977689,504.149358559693,0.102380559998752,2.11619605446304
5.81272509003601,5.76426112019703,509.778802977689,504.014541857492,0.103451946636062,1.78815496155794
5.84453781512605,5.9017716630932,509.778802977689,503.877031314596,0.104521751066929,1.4602591114806
5.87635054021609,6.04194418805002,509.778802977689,503.736858789639,0.105588661686649,1.13250904447003
5.90816326530612,6.1847427791551,509.778802977689,503.594060198534,0.106651435327822,0.80490426434749
5.93997599039616,6.33012832001759,509.778802977689,503.448674657671,0.107708915861955,0.477443363164599
5.97178871548619,6.47805931792232,509.778802977689,503.300743659766,0.108760050234303,0.150124150011074
6.00360144057623,6.62849267341778,509.778802977689,503.150310304271,0.10980390167829,-0.177056218138605
6.03541416566627,6.78138437468243,509.778802977689,502.997418603006,0.110839659923266,-0.504101105499048
6.0672268907563,6.93669009781968,509.778802977689,502.842112879869,0.111866648279588,-0.831014268252497
6.09903961584634,7.09436569648949,509.778802977689,502.684437281199,0.112884327555796,-1.15779972863237
6.13085234093637,7.25436756693631,509.778802977689,502.524435410752,0.113892296831938,-1.48446165372624
6.16266506602641,7.41665287743416,509.778802977689,502.362150100255,0.114890291178879,-1.81100424023009
6.19447779111645,7.5811796543187,509.778802977689,502.19762332337,0.115878176473817,-2.13743160620794
6.22629051620648,7.74790672005599,509.778802977689,502.030896257633,0.116855941515957,-2.46374769074306
6.25810324129652,7.91679348208021,509.778802977689,501.862009495609,0.117823687691949,-2.78995616220774
6.28991596638655,8.08779957435047,509.778802977689,501.691003403338,0.118781616477927,-3.11606033573161
6.32172869147659,8.26088435665446,509.778802977689,501.517918621034,0.119730015093208,2.84112220686806
6.35354141656663,8.43600627955334,509.778802977689,501.342796698135,0.120669240640101,2.515218451299
6.38535414165666,8.61312212548955,509.778802977689,501.165680852199,0.121599703075392,2.18941184664134
6.4171668667467,8.79218613891589,509.778802977689,500.986616838773,0.12252184736235,1.86370111914229
6.44897959183673,8.97314906035325,509.778802977689,500.805653917336,0.123436135148676,1.53808561165375
6.48079231692677,9.15595708102421,509.778802977689,500.622845896665,0.124343026306571,1.21256530572822
