"k","deltaD","D_base","D_harmonic","amplitude","phase"
0.5,0.171850790592202,494.941298732361,494.769447941768,0.846940985452789,2.64689193947604
0.531812725090036,0.170906828590205,494.941298732361,494.77039190377,0.708912803507575,2.31727295931928
0.563625450180072,0.169905549269856,494.941298732361,494.771393183091,0.599994303850537,1.98793707569897
0.595438175270108,0.168847127172057,494.941298732361,494.772451605188,0.51285627401612,1.6588937605593
0.627250900360144,0.167731751370752,494.941298732361,494.77356698099,0.442280846531258,1.33015155544133
0.65906362545018,0.166559626272885,494.941298732361,494.774739106088,0.384484115746816,1.00171810018117
0.690876350540216,0.16533097247833,494.941298732361,494.775967759882,0.336676259862715,0.673600167431428
0.722689075630252,0.164046027702909,494.941298732361,494.777252704658,0.296769424074021,0.345803702330003
0.754501800720288,0.162705047767133,494.941298732361,494.778593684593,0.263179776465633,0.0183338665719325
0.786314525810324,0.161308307653258,494.941298732361,494.779990424707,0.234690904123436,-0.308804913842394
0.81812725090036,0.159856102635445,494.941298732361,494.781442629725,0.210357960558628,-0.635608897874798
0.849939975990396,0.158348749485981,494.941298732361,494.782949982875,0.189439377848041,-0.962074976393561
0.881752701080432,0.156786587761303,494.941298732361,494.784512144599,0.171347533541878,-1.2882006173832
0.913565426170468,0.155169981172151,494.941298732361,494.786128751188,0.155612650470861,-1.61398380995803
0.945378151260504,0.15349931904359,494.941298732361,494.787799413317,0.141856064640161,-1.93942300763169
0.97719087635054,0.151775017867749,494.941298732361,494.789523714493,0.129770211298223,-2.26451707124206
1.00900360144058,0.149997522955516,494.941298732361,494.791301209405,0.11910348687214,-2.58926521184889
1.04081632653061,0.148167310192889,494.941298732361,494.793131422168,0.109648689315332,-2.91366693384059
1.07262905162065,0.146284887907825,494.941298732361,494.795013844453,0.101234112086838,3.04546332873907
1.10444177671068,0.144350798851804,494.941298732361,494.796947933509,0.0937166251901792,2.72175503946913
1.13625450180072,0.142365622306954,494.941298732361,494.798933110054,0.0869762577416038,2.39839345807908
1.16806722689076,0.140329976320061,494.941298732361,494.80096875604,0.0809119249175588,2.07537846666089
1.19987995198079,0.138244520077137,494.941298732361,494.803054212283,0.075438034123209,1.75270993133196
1.23169267707083,0.136109956420569,494.941298732361,494.80518877594,0.0704817718045842,1.43038775641769
1.26350540216086,0.133927034521832,494.941298732361,494.807371697839,0.0659809209603681,1.10841193851936
1.2953181272509,0.131696552715823,494.941298732361,494.809602179645,0.0618820952543938,0.786782620727894
1.32713085234094,0.129419361507644,494.941298732361,494.811879370853,0.0581393022635578,0.465500147285645
1.35894357743097,0.12709636676118,494.941298732361,494.814202365599,0.0547127683464609,0.14456511905882
1.39075630252101,0.124728533080145,494.941298732361,494.81657019928,0.0515679726731551,-0.176021549749617
1.42256902761104,0.122316887393367,494.941298732361,494.818981844967,0.04867484939669,-0.496258573166015
1.45438175270108,0.119862522755113,494.941298732361,494.821436209605,0.0460071257021557,-0.816144232730516
1.48619447779112,0.117366602373579,494.941298732361,494.823932129987,0.0435417702096939,-1.13567631387136
1.51800720288115,0.114830363880913,494.941298732361,494.82646836848,0.0412585314313143,-1.45485203865045
1.54981992797119,0.112255123857608,494.941298732361,494.829043608503,0.0391395500518433,-1.77366799406783
1.58163265306122,0.109642282627533,494.941298732361,494.831656449733,0.0371690319945736,-2.09212005499942
1.61344537815126,0.106993329337513,494.941298732361,494.834305403023,0.0353329717456634,-2.41020330071647
1.6452581032413,0.104309847338072,494.941298732361,494.836988885022,0.0336189174022486,-2.72791192377905
1.67707082833133,0.101593519883181,494.941298732361,494.839705212477,0.0320157704933688,-3.04523912992442
1.70888355342137,0.0988461361652639,494.941298732361,494.842452596195,0.0305136148898324,2.92100827981888
1.7406962785114,0.0960695977055934,494.941298732361,494.845229134655,0.0291035701371578,2.60446880355499
1.77250900360144,0.0932659251185441,494.941298732361,494.848032807242,0.0277776653666112,2.28833821930112
1.80432172869148,0.0904372652707366,494.941298732361,494.85086146709,0.0265287306054964,1.97262851101988
1.83613445378151,0.0875858988550249,494.941298732361,494.853712833505,0.0253503028490994,1.65735335049044
1.86794717887155,0.084714248403543,494.941298732361,494.856584483957,0.0242365446997924,1.34252829533915
1.89975990396158,0.0818248867594775,494.941298732361,494.859473845601,0.0231821737421272,1.02817101440444
1.93157262905162,0.078920546033828,494.941298732361,494.862378186327,0.0221824011224295,0.714301545146774
1.96338535414166,0.0760041270694387,494.941298732361,494.865294605291,0.0212328780496948,0.400942588680954
1.99519807923169,0.0730787094378229,494.941298732361,494.868220022923,0.0203296491411655,0.088119849041127
2.02701080432173,0.0701475619936787,494.941298732361,494.871151170367,0.019469111709231,-0.224137575453513
2.05882352941176,0.0672141540129587,494.941298732361,494.874084578348,0.0186479802321358,-0.535796739364838
2.0906362545018,0.0642821669395062,494.941298732361,494.877016565421,0.017863255375367,-0.846820324641307
2.12244897959184,0.0613555067667448,494.941298732361,494.879943225594,0.0171121970372708,-1.15716602909491
2.15426170468187,0.0584383170801175,494.941298732361,494.88286041528,0.0163923009858524,-1.46678585284631
2.18607442977191,0.055534992783123,494.941298732361,494.885763739577,0.0157012787364214,-1.7756252636028
2.21788715486194,0.0526501945342943,494.941298732361,494.888648537826,0.0150370403952303,-2.08362221789417
2.24969987995198,0.0497888639155235,494.941298732361,494.891509868445,0.0143976802648775,-2.39070601099218
2.28151260504202,0.0469562393528236,494.941298732361,494.894342493008,0.0137814650757669,-2.69679592312402
2.31332533013205,0.0441578728101604,494.941298732361,494.89714085955,0.0131868247770415,-3.00179962377542
2.34513805522209,0.0413996472698841,494.941298732361,494.899899085091,0.0126123458928905,2.97757401769319
2.37695078031213,0.038687795013459,494.941298732361,494.902610937347,0.0120567675290339,2.67507592325046
2.40876350540216,0.0360289167091423,494.941298732361,494.905269815651,0.0115189802029518,2.37403126423873
2.4405762304922,0.033430001309398,494.941298732361,494.907868731051,0.0109980277733789,2.07460130418564
2.47238895558223,0.030898446752758,494.941298732361,494.910400285608,0.0104931128634659,1.77697229532237
2.50420168067227,0.0284420814573423,494.941298732361,494.912856650903,0.0100036063103228,1.48135963774771
2.5360144057623,0.0260691865846638,494.941298732361,494.915229545776,0.00952906133235579,1.18801263465455
2.56782713085234,0.0237885190397265,494.941298732361,494.917510213321,0.00906923328025965,0.89721981484022
2.59963985594238,0.0216093351612017,494.941298732361,494.919689397199,0.00862410601366878,0.609314688948736
2.63145258103241,0.0195414150402939,494.941298732361,494.92175731732,0.00819392608914044,0.324681619016097
2.66326530612245,0.0175950873896227,494.941298732361,494.923703644971,0.00777924598687378,0.0437611630307512
2.69507803121249,0.0157812548613379,494.941298732361,494.925517477499,0.00738097741201624,-0.232946261906973
2.72689075630252,0.0141114196944159,494.941298732361,494.927187312666,0.0070004550495319,-0.504880360429932
2.75870348139256,0.0125977095398753,494.941298732361,494.928701022821,0.00663950964740713,-0.771427726890851
2.79051620648259,0.0112529032864472,494.941298732361,494.930045829074,0.00630054637903543,-1.03194012017182
2.82232893157263,0.0100904566739928,494.941298732361,494.931208275687,0.00598661935886655,-1.28577074582831
2.85414165666266,0.00912452744296388,494.941298732361,494.932174204918,0.00570148530390077,-1.532336345111
2.8859543817527,0.00836999972852936,494.941298732361,494.932928732632,0.00544960878046872,-1.77121213285746
2.91776710684274,0.00784250735586056,494.941298732361,494.933456225005,0.00523608058565639,-2.00226111572054
2.94957983193277,0.00755845564708579,494.941298732361,494.933740276713,0.005066406019762,-2.22578598148994
2.98139255702281,0.00753504128670102,494.941298732361,494.933763691074,0.00494613227089401,-2.44267010202447
3.01320528211285,0.00779026973350483,494.941298732361,494.933508462627,0.00488032517717058,-2.65445166205569
3.04501800720288,0.00834296959845915,494.941298732361,494.932955762762,0.00487297388455459,-2.86326976518996
3.07683073229292,0.00921280333233199,494.941298732361,494.932085929028,0.00492646896031009,-3.07165332668095
3.10864345738295,0.0104202734927412,494.941298732361,494.930878458868,0.00504131553006218,3.00099503066133
3.14045618247299,0.0119867237767153,494.941298732361,494.929312008584,0.00521617618260167,2.78600777864313
3.17226890756303,0.0139343339185984,494.941298732361,494.927364398442,0.00544821656562999,2.56482225525809
3.20408163265306,0.0162861074689999,494.941298732361,494.925012624892,0.00573362413421506,2.33634416201551
3.2358943577431,0.0190658513822086,494.941298732361,494.922232880978,0.00606814334092481,2.10009445732084
3.26770708283313,0.0222981462538314,494.941298732361,494.919000586107,0.00644751348161311,1.8560831922449
3.29951980792317,0.0260083059711178,494.941298732361,494.915290426389,0.00686776327017079,1.60465628777648
3.33133253301321,0.0302223254677187,494.941298732361,494.911076406893,0.00732536947389806,1.34635664592931
3.36314525810324,0.0349668152131812,494.941298732361,494.906331917147,0.0078173125071795,1.08181769837775
3.39495798319328,0.0402689210263247,494.941298732361,494.901029811334,0.00834106576400942,0.811691233019543
3.42677070828331,0.0461562277848202,494.941298732361,494.895142504576,0.00889454864071353,0.53660357382073
3.45858343337335,0.0526566456109094,494.941298732361,494.88864208675,0.00947606375408316,0.257132226802508
3.49039615846339,0.0597982771651004,494.941298732361,494.881500455195,0.0100842307002614,-0.0262040395770572
3.52220888355342,0.0676092647701694,494.941298732361,494.87368946759,0.0107179229084561,-0.312946977612571
3.55402160864346,0.0761176162405377,494.941298732361,494.86518111612,0.011376210505632,-0.602696123932885
3.58583433373349,0.0853510084972982,494.941298732361,494.855947723863,0.012058310036374,-0.895103846689668
3.61764705882353,0.0953365683394622,494.941298732361,494.845962164021,0.0127635408191872,-1.18986955947705
3.64945978391357,0.106100630102731,494.941298732361,494.835198102258,0.0134912872558917,-1.48673388324942
3.6812725090036,0.11766847039371,494.941298732361,494.823630261967,0.0142409662763234,-1.78547316296018
3.71308523409364,0.130064020636553,494.941298732361,494.811234711724,0.0150119991344243,-2.08589452233337
3.74489795918367,0.143309558814508,494.941298732361,494.797989173546,0.0158037868817755,-2.38783151287369
3.77671068427371,0.15742538253852,494.941298732361,494.783873349822,0.016615688980915,-2.69114034470185
3.80852340936375,0.172429466411245,494.941298732361,494.768869265949,0.0174470046581253,-2.99569665317862
3.84033613445378,0.188337107577183,494.941298732361,494.752961624783,0.0182969567218722,2.98179256550143
3.87214885954382,0.205160564342293,494.941298732361,494.736138168018,0.0191646776839292,2.67505006890312
3.90396158463385,0.222908693769341,494.941298732361,494.718390038591,0.0200491981138655,2.36734219997936
3.93577430972389,0.241586595198783,494.941298732361,494.699712137162,0.0209494372339779,2.05873934562711
3.96758703481393,0.261195267646087,494.941298732361,494.680103464714,0.0218641958212461,1.74930267680137
3.99939975990396,0.281731289947061,494.941298732361,494.659567442413,0.022792151525716,1.43908536754242
4.031212484994,0.303186533306132,494.941298732361,494.638112199054,0.023731856741114,1.12813363451609
4.06302521008403,0.325547916479422,494.941298732361,494.615750815881,0.024681739173327,0.816487626148441
4.09483793517407,0.348797214139722,494.941298732361,494.592501518221,0.0256401052456825,0.504182185815615
4.12665066026411,0.372910928950773,494.941298732361,494.56838780341,0.0266051464567582,0.191247509612102
4.15846338535414,0.397860237481666,494.941298732361,494.543438494879,0.0275749487671871,-0.122290284100678
4.19027611044418,0.4236110192507,494.941298732361,494.51768771311,0.0285475050374262,-0.436408658944383
4.22208883553421,0.450123976892257,494.941298732361,494.491174755468,0.0295207304703513,-0.751088226475802
4.25390156062425,0.477354853673887,494.941298732361,494.463943878687,0.0304924809330277,-1.06631236367805
4.28571428571429,0.505254752364067,494.941298732361,494.436043979996,0.0314605739442299,-1.38206687344282
4.31752701080432,0.533770556824265,494.941298732361,494.407528175536,0.0324228120220557,-1.69833968084167
4.34933973589436,0.56284545474017,494.941298732361,494.37845327762,0.0333770079938139,-2.01512055911304
4.38115246098439,0.592419556724451,494.941298732361,494.348879175636,0.0343210117831864,-2.3324008802418
4.41296518607443,0.622430603749308,494.941298732361,494.318868128611,0.0352527381125981,-2.6501733858136
4.44477791116447,0.65281475165466,494.941298732361,494.288483980706,0.0361701944966772,-2.96843197451547
4.4765906362545,0.683507418480644,494.941298732361,494.25779131388,0.0370715088601172,2.99601380392846
4.50840336134454,0.714444177761322,494.941298732361,494.226854554599,0.0379549560936108,2.67679770781633
4.54021608643457,0.745561678825084,494.941298732361,494.195737053535,0.0388189828671536,2.35710882525786
4.57202881152461,0.776798573717031,494.941298732361,494.164500158643,0.0396622300517992,2.03695051671714
4.60384153661465,0.808096429659543,494.941298732361,494.133202302701,0.0404835521581253,1.71632588722754
4.63565426170468,0.839400606067727,494.941298732361,494.101898126293,0.0412820332800797,1.39523794605614
4.66746698679472,0.870661076026295,494.941298732361,494.070637656334,0.0420569991327839,1.07368976150085
4.69927971188475,0.901833173774662,494.941298732361,494.039465558586,0.0428080248875356,0.751684610986008
4.73109243697479,0.932878252054479,494.941298732361,494.008420480306,0.0435349386310572,0.429226126293411
4.76290516206483,0.96376423601788,494.941298732361,493.977534496343,0.0442378204031034,0.106318433450482
4.79471788715486,0.994466063635116,494.941298732361,493.946832668725,0.0449169968908967,-0.217033713506595
4.8265306122449,1.0249660060021,494.941298732361,493.916332726358,0.0455730319753142,-0.540824805961127
4.85834333733493,1.05525386447738,494.941298732361,493.886044867883,0.046206713427564,-0.865048462662783
4.89015606242497,1.08532704499834,494.941298732361,493.855971687362,0.0468190361429473,-1.18969732174656
4.92196878751501,1.1151905131133,494.941298732361,493.826108219247,0.047411182367872,-1.51476294456212
4.95378151260504,1.14485663609253,494.941298732361,493.796442096268,0.0479844994265242,-1.840235733181
4.98559423769508,1.17434492087028,494.941298732361,493.76695381149,0.0485404754846804,-2.16610486351391
5.01740696278511,1.20368165846691,494.941298732361,493.737617073894,0.0490807139011131,-2.49235823595907
5.04921968787515,1.23289948692525,494.941298732361,493.708399245435,0.0496069067137614,-2.81898244540485
5.08103241296519,1.26203688568319,494.941298732361,493.679261846677,0.0501208077907228,3.13722253495851
5.11284513805522,1.29113761471837,494.941298732361,493.650161117642,0.0506242061477307,2.809902111592
5.14465786314526,1.32025011180593,494.941298732361,493.621048620555,0.0511188998968333,2.48225887705039
5.17647058823529,1.34942686087606,494.941298732361,493.591871871484,0.0516066712479423,2.15431132082264
5.20828331332533,1.37872374382789,494.941298732361,493.562574988533,0.0520892629379794,1.82607905230878
5.24009603841537,1.40819938730965,494.941298732361,493.533099345051,0.0525683564133281,1.49758269350544
5.2719087635054,1.43791451498316,494.941298732361,493.503384217377,0.053045552041531,1.16884374987092
5.30372148859544,1.46793131471287,494.941298732361,493.473367417648,0.0535223515787203,0.839884461310626
5.33553421368547,1.49831282900152,494.941298732361,493.442985903359,0.0540001430706194,0.510727635854988
5.36734693877551,1.52912237587987,494.941298732361,493.412176356481,0.0544801883175475,0.181396469178978
5.39915966386555,1.5604230063617,494.941298732361,493.380875725999,0.0549636129876855,-0.148085646390435
5.43097238895558,1.59227700353409,494.941298732361,493.349021728826,0.0554513994180586,-0.477695319346911
5.46278511404562,1.62474542735316,494.941298732361,493.316553305007,0.055944382099153,-0.807409358669553
5.49459783913565,1.65788770827038,494.941298732361,493.28341102409,0.0564432457968567,-1.1372049712843
5.52641056422569,1.6917612919197,494.941298732361,493.249537440441,0.056948526224668,-1.46705995297247
5.55822328931573,1.7264213362343,494.941298732361,493.214877396126,0.0574606131400716,-1.79695286857587
5.59003601440576,1.76192046153443,494.941298732361,493.179378270826,0.0579797557020348,-2.12686321769104
5.6218487394958,1.79830855332233,494.941298732361,493.142990179038,0.058506069892318,-2.45677158251293
5.65366146458583,1.83563261673129,494.941298732361,493.105666115629,0.0590395477722572,-2.78665975505879
5.68547418967587,1.87393668079955,494.941298732361,493.067362051561,0.0595800683196711,-3.11651084164664
5.71728691476591,1.91326174998784,494.941298732361,493.028036982373,0.0601274095682322,2.83687596399024
5.74909963985594,1.95364579961927,494.941298732361,492.987652932741,0.0606812617546661,2.5071440966165
5.78091236494598,1.99512381122679,494.941298732361,492.946174921134,0.0612412411681997,2.1774914321899
5.81272509003601,2.03772784313878,494.941298732361,492.903570889222,0.0618069043920918,1.84792905317099
5.84453781512605,2.0814871310497,494.941298732361,492.859811601311,0.0623777626292336,1.51846657299419
5.87635054021609,2.12642821282026,494.941298732361,492.81487051954,0.0629532958126816,1.18911217498514
5.90816326530612,2.1725750713486,494.941298732361,492.768723661012,0.0635329662174245,0.859872670868762
5.93997599039616,2.21994928907247,494.941298732361,492.721349443288,0.0641162313113143,0.53075357652963
5.97178871548619,2.26857020750805,494.941298732361,492.672728524852,0.0647025556102425,0.201759202481001
6.00360144057623,2.31845508521769,494.941298732361,492.622843647143,0.0652914213344499,-0.127107243616436
6.03541416566627,2.3696192477334,494.941298732361,492.571679484627,0.0658823376984068,-0.455843545075595
6.0672268907563,2.42207622323855,494.941298732361,492.519222509122,0.0664748487047561,-0.784448357591405
6.09903961584634,2.47583785822422,494.941298732361,492.465460874136,0.0670685393522549,-1.11292108648014
6.13085234093637,2.53091440788467,494.941298732361,492.410384324476,0.0676630402072928,-1.44126176213982
6.16266506602641,2.5873145966695,494.941298732361,492.353984135691,0.0682580303271907,-1.76947091593204
6.19447779111645,2.64504564515937,494.941298732361,492.296253087201,0.0688532385600785,-2.09754945846871
6.22629051620648,2.7041132602626,494.941298732361,492.237185472098,0.0694484432798951,-2.42549856205632
6.25810324129652,2.76452158659811,494.941298732361,492.176777145762,0.0700434706450013,-2.75331954881167
6.28991596638655,2.82627311783881,494.941298732361,492.115025614522,0.0706381914947942,-3.08101378572622
6.32172869147659,2.8893685677034,494.941298732361,492.051930164657,0.0712325170200044,2.87460271945479
6.35354141656663,2.95380670118334,494.941298732361,491.987492031177,0.0718263933590417,2.54715817763393
6.38535414165666,3.01958412747052,494.941298732361,491.92171460489,0.0724197952848623,2.21983694011663
6.4171668667467,3.08669505687897,494.941298732361,491.854603675482,0.0730127191545513,1.89263833869666
6.44897959183673,3.1551310248401,494.941298732361,491.78616770752,0.073605175297522,1.56556205150625
6.48079231692677,3.22488058676532,494.941298732361,491.716418145595,0.0741971800183366,1.2386081514498
