k,deltaD,D_base,D_harmonic,amplitude,phase
0.5,20.196218768313656,1450.758101311353,1430.5618825430392,16.77738441201537,-0.20206691351189954
0.531812725090036,20.173508571626144,1450.758101311353,1430.5845927397268,13.966818352427012,-0.515016013230353
0.563625450180072,20.149498432515202,1450.758101311353,1430.6086028788377,11.754050079170751,-0.8280154490079314
0.595438175270108,20.12420731185398,1450.758101311353,1430.633893999499,9.988065388461209,-1.141068652601929
0.6272509003601441,20.09765555005447,1450.758101311353,1430.6604457612984,8.561427365174005,-1.4541791322821076
0.65906362545018,20.06986491704265,1450.758101311353,1430.6882363943103,7.39628145504627,-1.7673504780165008
0.690876350540216,20.040858665784754,1450.758101311353,1430.7172426455681,6.435270644200038,-2.0805863668095785
0.7226890756302521,20.010661589490837,1450.758101311353,1430.747439721862,5.635504575699771,-2.3938905681914435
0.7545018007202882,19.979300082668715,1450.758101311353,1430.7788012286842,4.964474480428567,-2.7072669498674364
0.7863145258103241,19.946802206160328,1450.758101311353,1430.8112991051926,4.397235153778606,-3.0207194835279894
0.8181272509003601,19.913197756342015,1450.758101311353,1430.844903555011,3.9144284306622694,2.9489330563525478
0.8499399759903962,19.878518338655113,1450.758101311353,1430.8795829726978,3.5008756764958067,2.6353158576497875
0.8817527010804321,19.84279744567334,1450.758101311353,1430.9153038656796,3.1445614273758355,2.3216099073463807
0.9135654261704682,19.80607053988001,1450.758101311353,1430.952030771473,2.835890007440271,2.007810756317938
0.9453781512605042,19.76837514138765,1450.758101311353,1430.9897261699653,2.567135326954508,1.6939138198434622
0.9771908763505401,19.729750920810147,1450.758101311353,1431.0283503905428,2.3320291644302076,1.3799143707625021
1.0090036014405763,19.690239797523645,1450.758101311353,1431.0678615138293,2.12544991734489,1.0658075324633058
1.0408163265306123,19.649886043566312,1450.758101311353,1431.1082152677866,1.9431850571292573,0.7515882717079646
1.0726290516206483,19.608736393427534,1450.758101311353,1431.1493649179254,1.7817482179816757,0.43725139130210217
1.1044417767106842,19.56684016000304,1450.758101311353,1431.1912611513499,1.6382371782575267,0.12279152262236923
1.1362545018007202,19.524249357001736,1450.758101311353,1431.2338519543512,1.5102227287767302,-0.19179688198385197
1.1680672268907561,19.481018828092374,1450.758101311353,1431.2770824832605,1.3956610705973216,-0.5065195569059496
1.1998799519807923,19.437206383111516,1450.758101311353,1431.3208949282414,1.292824281893156,-0.8213824310605604
1.2316926770708283,19.3928729416416,1450.758101311353,1431.3652283697113,1.200244766162335,-1.1363916357342745
1.2635054021608643,19.34808268430652,1450.758101311353,1431.4100186270464,1.1166705963416281,-1.4515535124417904
1.2953181272509005,19.30290321212283,1450.758101311353,1431.45519809923,1.041029407884045,-1.7668746207549357
1.3271308523409364,19.257405714268316,1450.758101311353,1431.5006955970846,0.9723990424463709,-2.0823617460500103
1.3589435774309724,19.211665144637436,1450.758101311353,1431.5464361667155,0.9099835545973208,-2.3980219071105795
1.3907563025210083,19.16576040756172,1450.758101311353,1431.5923409037912,0.8530935038202949,-2.713862363512341
1.4225690276110443,19.11977455308238,1450.758101311353,1431.6383267582705,0.8011296894874375,-3.029890622704232
1.4543817527010803,19.073794982169602,1450.758101311353,1431.6843063291833,0.7535696665422957,2.9370708604937334
1.4861944777911165,19.027913662285982,1450.758101311353,1431.730187649067,0.7099565182257199,2.620643449013967
1.5180072028811524,18.982227353698136,1450.758101311353,1431.7758739576548,0.6698894695291585,2.304004161113086
1.5498199279711884,18.93683784693326,1450.758101311353,1431.8212634644196,0.6330160086833828,1.987144436952849
1.5816326530612244,18.891852211771038,1450.758101311353,1431.8662490995819,0.5990252495044424,1.6700554420588007
1.6134453781512605,18.847383058170408,1450.758101311353,1431.9107182531825,0.5676423190108391,1.3527280647774806
1.6452581032412965,18.80354880948289,1450.758101311353,1431.95455250187,0.5386235955686698,1.0351529151369927
1.6770708283313325,18.760473988315653,1450.758101311353,1431.9976273230372,0.5117526553089734,0.717320325364858
1.7088835534213684,18.718289515357583,1450.758101311353,1432.0398117959953,0.48683681052579103,0.3992203523486285
1.7406962785114046,18.67713302144898,1450.758101311353,1432.080968289904,0.4637041446078655,0.08084278235867004
1.7725090036014406,18.63714917313132,1450.758101311353,1432.1209521382216,0.44220096486214094,-0.23782286161147675
1.8043217286914766,18.598490011846252,1450.758101311353,1432.1596112995067,0.42218960819367723,-0.5567873094933143
1.8361344537815125,18.561315306875713,1450.758101311353,1432.1967860044772,0.40354654566631987,-0.8760615303463752
1.8679471788715485,18.52579292203177,1450.758101311353,1432.2323083893211,0.38616074099172865,-1.195656714641478
1.8997599039615847,18.49209919597638,1450.758101311353,1432.2660021153765,0.3699322253856777,-1.5155842521080092
1.9315726290516206,18.460419335936194,1450.758101311353,1432.2976819754167,0.35477085730314756,-1.8358557045889816
1.9633853541416566,18.43094782438925,1450.758101311353,1432.3271534869637,0.34059524057320806,-2.1564827733089613
1.9951980792316926,18.403888838131934,1450.758101311353,1432.354212473221,0.32733177859751367,-2.4774772599259034
2.0270108043217285,18.379456678892666,1450.758101311353,1432.3786446324602,0.3149138457156902,-2.798851020709747
2.0588235294117645,18.35787621438567,1450.758101311353,1432.4002250969672,0.30328105970269936,-3.120615913171474
2.090636254501801,18.33938332840171,1450.758101311353,1432.4187179829512,0.29237864175272993,2.840401572720229
2.1224489795918364,18.324225378137044,1450.758101311353,1432.4338759332159,0.2821568523037413,2.5178191563315657
2.154261704681873,18.312661656554383,1450.758101311353,1432.4454396547985,0.27257049273464606,2.194810689504035
2.186074429771909,18.304963857054418,1450.758101311353,1432.4531374542985,0.26357846437846605,1.871365018041207
2.2178871548619448,18.301416537171235,1450.758101311353,1432.4566847741817,0.25514337748449173,1.5474713897398802
2.2496998799519807,18.302317577320082,1450.758101311353,1432.4557837340328,0.2472312037675909,1.223119566270123
2.2815126050420167,18.307978629871968,1450.758101311353,1432.450122681481,0.239810967033598,0.898299946300137
2.3133253301320527,18.31872555294217,1450.758101311353,1432.4393757584107,0.23285446709151633,0.5730036998682961
2.3451380552220886,18.334898822263767,1450.758101311353,1432.4232024890891,0.22633603277644956,0.2472229137359068
2.376950780312125,18.35685391337688,1450.758101311353,1432.401247397976,0.22023230042953143,-0.07904925287308283
2.4087635054021606,18.384961645043177,1450.758101311353,1432.3731396663097,0.21452201462680212,-0.40581840312825934
2.440576230492197,18.419608473320068,1450.758101311353,1432.3384928380328,0.20918584833032944,-0.7330887294786557
2.472388955582233,18.461196724060073,1450.758101311353,1432.2969045872928,0.20420623996208007,-1.0608628345120739
2.504201680672269,18.51014474970316,1450.758101311353,1432.2479565616497,0.1995672451829365,-1.3891415482935077
2.536014405762305,18.566886994150764,1450.758101311353,1432.1912143172021,0.19525440140308403,-1.717923745289256
2.567827130852341,18.631873947158965,1450.758101311353,1432.126227364194,0.19125460326220187,-2.047206164605865
2.599639855942377,18.705571967101832,1450.758101311353,1432.052529344251,0.18755598750372698,-2.3769832378916798
2.6314525810324128,18.788462948128426,1450.758101311353,1431.9696383632245,0.18414782583146702,-2.7072469298326087
2.6632653061224487,18.881043804635965,1450.758101311353,1431.877057506717,0.18102042448271277,-3.037986596684786
2.695078031212485,18.98382574265429,1450.758101311353,1431.7742755686986,0.17816502938282716,2.9139964384968065
2.726890756302521,19.097333284173146,1450.758101311353,1431.6607680271798,0.1755737358643264,2.5823477447825813
2.758703481392557,19.222103006724637,1450.758101311353,1431.5359983046283,0.17323940204063218,2.2502716780374943
2.790516206482593,19.35868195664557,1450.758101311353,1431.3994193547073,0.17115556502197704,1.9177901618625037
2.822328931572629,19.507625690595205,1450.758101311353,1431.2504756207577,0.16931635924931168,1.5849279571254329
2.854141656662665,19.66949589607043,1450.758101311353,1431.0886054152825,0.16771643630172267,1.2517125724357654
2.885954381752701,19.844857538156475,1450.758101311353,1430.9132437731964,0.166350885604196,0.918174119292311
2.917767106842737,20.034275476693665,1450.758101311353,1430.7238258346592,0.1652151555256522,0.5843451098613675
2.949579831932773,20.23831049576188,1450.758101311353,1430.519790815591,0.16430497441269626,0.25026019700127233
2.9813925570228093,20.457514686260083,1450.758101311353,1430.3005866250928,0.16361627115351216,-0.08404414200792726
3.013205282112845,20.69242612280641,1450.758101311353,1430.0656751885465,0.1631450949108513,-0.41852997463016256
3.045018007202881,20.94356277877546,1450.758101311353,1429.8145385325774,0.16288753370627232,-0.7531583298007909
3.076830732292917,21.211415628693203,1450.758101311353,1429.5466856826597,0.16283963158432704,-1.087889655067262
3.108643457382953,21.49644089618255,1450.758101311353,1429.2616604151704,0.1629973041414763,-1.4226843054131773
3.140456182472989,21.799051419076477,1450.758101311353,1428.9590498922764,0.16335625227802672,-1.7575030537905094
3.172268907563025,22.11960712220821,1450.758101311353,1428.6384941891447,0.16391187413160804,-2.092307612558403
3.204081632653061,22.458404613756784,1450.758101311353,1428.2996966975961,0.1646591752883128,-2.427061154673329
3.235894357743097,22.81566595397976,1450.758101311353,1427.9424353573731,0.16559267755369195,-2.7617288236130557
3.2677070828331334,23.191526686752468,1450.758101311353,1427.5665746246004,0.16670632681135636,-3.096278221628153
3.2995198079231693,23.586023275348225,1450.758101311353,1427.1720780360047,0.1679934008116917,2.8525054402342573
3.3313325330132053,23.999080145026483,1450.758101311353,1426.7590211663264,0.16944641812409122,2.518277695265698
3.3631452581032413,24.430496606197494,1450.758101311353,1426.3276047051554,0.17105704995568569,2.184246291495453
3.3949579831932772,24.87993401268045,1450.758101311353,1425.8781672986725,0.17281603708396423,1.8504296404619482
3.426770708283313,25.34690359816136,1450.758101311353,1425.4111977131915,0.17471311475737175,1.5168418550425182
3.458583433373349,25.8307555275926,1450.758101311353,1424.9273457837603,0.17673694906355955,1.183492534660932
3.490396158463385,26.330669794492678,1450.758101311353,1424.4274315168602,0.17887508891323342,0.8503866050555215
3.522208883553421,26.845649683815054,1450.758101311353,1423.9124516275378,0.18111393838771628,0.5175242114862515
3.554021608643457,27.37451859527846,1450.758101311353,1423.3835827160744,0.18343875468530615,0.18490066344182202
3.5858343337334935,27.915921074072003,1450.758101311353,1422.842180237281,0.18583367719659669,-0.14749357158957643
3.6176470588235294,28.468328913624646,1450.758101311353,1422.2897723977283,0.18828179325447336,-0.4796728279133517
3.6494597839135654,29.03005316691838,1450.758101311353,1421.7280481444345,0.19076524575033776,-0.8116561575325334
3.6812725090036014,29.5992628173517,1450.758101311353,1421.1588384940012,0.19326538700190937,-1.1434672044074454
3.7130852340936373,30.174010708017477,1450.758101311353,1420.5840906033354,0.19576298193862013,-1.4751340388508534
3.7448979591836733,30.752267103840722,1450.758101311353,1420.0058342075122,0.1982384618134434,-1.8066889532717771
3.7767106842737093,31.331960964118707,1450.758101311353,1419.4261403472342,0.20067222728156314,-2.138168219868741
3.8085234093637452,31.911028640842233,1450.758101311353,1418.8470726705107,0.20304499689725383,-2.469611810261894
3.840336134453781,32.48746930627772,1450.758101311353,1418.2706320050752,0.2053381940305617,-2.801063076474621
3.8721488595438176,33.05940597591302,1450.758101311353,1417.6986953354399,0.20753436212041007,-3.1325683921458625
3.9039615846338536,33.62515056180723,1450.758101311353,1417.1329507495457,0.20961759533557706,2.819008554802124
3.9357743097238895,34.18327100366514,1450.758101311353,1416.5748303076878,0.21157396940584877,2.4872459769894677
3.9675870348139255,34.732658218843426,1450.758101311353,1416.0254430925095,0.213391955891889,2.1552763200084555
3.9993997599039615,35.272590423068095,1450.758101311353,1415.4855108882848,0.2150628027047102,1.8230455716279852
4.031212484993997,35.802792327498764,1450.758101311353,1414.9553089838541,0.2165808643869263,1.4904991585028593
4.063025210084033,36.32348682895804,1450.758101311353,1414.4346144823949,0.21794386752657025,1.1575825904881178
4.09483793517407,36.835437077190136,1450.758101311353,1413.9226642341628,0.21915309955569914,0.8242421628227821
4.126650660264105,37.33997720808361,1450.758101311353,1413.4181241032693,0.22021351283520396,0.4904257187931263
4.158463385354142,37.83903054257257,1450.758101311353,1412.9190707687803,0.2211337400034344,0.15608347444598347
4.190276110444177,38.3351146241514,1450.758101311353,1412.4229866872015,0.22192602068957223,-0.178831094893336
4.222088835534214,38.83133305495153,1450.758101311353,1411.9267682564014,0.22260604349862453,-0.5143603093458886
4.25390156062425,39.331354642916494,1450.758101311353,1411.4267466684364,0.22319271036248642,-0.8505412874597753
4.285714285714286,39.83938084861643,1450.758101311353,1410.9187204627365,0.22370783271937714,-1.1874049096935164
4.317527010804321,40.36010288779403,1450.758101311353,1410.3979984235589,0.2241757704476212,-1.5249747611301039
4.3493397358943575,40.89865008580978,1450.758101311353,1409.8594512255431,0.22462302506982143,-1.8632660796859073
4.381152460984394,41.46053118715895,1450.758101311353,1409.297570124194,0.22507779858670263,-2.2022847442579225
4.4129651860744294,42.05157030377154,1450.758101311353,1408.7065310075814,0.22556952858838697,-2.542026345414247
4.444777911164466,42.677839056402036,1450.758101311353,1408.0802622549509,0.22612840924613148,-2.882475388464595
4.476590636254501,43.34558624726333,1450.758101311353,1407.4125150640896,0.22678490662386536,3.0595806232500458
4.508403361344538,44.06116612596202,1450.758101311353,1406.6969351853909,0.2275692756433339,2.7178103248522985
4.540216086434573,44.830966002111836,1450.758101311353,1405.927135309241,0.22851108510664953,2.3754503995497744
4.57202881152461,45.66133364264397,1450.758101311353,1405.096767668709,0.22963875647285245,2.032564071395842
4.603841536614646,46.55850459239946,1450.758101311353,1404.1995967189534,0.23097912157897157,1.6892257562610715
4.635654261704682,47.528529292084386,1450.758101311353,1403.2295720192685,0.23255700411327102,1.345520014610629
4.667466986794718,48.57719965282854,1450.758101311353,1402.1809016585244,0.23439482927750185,1.001540123610805
4.699279711884754,49.70997459274463,1450.758101311353,1401.0481267186083,0.23651226560038066,0.657386304949819
4.73109243697479,50.931903956105316,1450.758101311353,1399.8261973552476,0.23892590219618992,0.3131636704888672
4.7629051620648255,52.24755022589375,1450.758101311353,1398.5105510854592,0.24164896386235313,-0.031020029723414312
4.794717887154862,53.660907509582785,1450.758101311353,1397.0971938017701,0.24469106530742576,-0.37505675628541824
4.826530612244897,55.175317428964945,1450.758101311353,1395.582783882388,0.24805800459536453,-0.7188405174295722
4.858343337334934,56.793381779519905,1450.758101311353,1393.964719531833,0.25175159473824305,-1.0622695870109182
4.89015606242497,58.516872143921546,1450.758101311353,1392.2412291674314,0.25576953145394093,-1.4052485071550034
4.921968787515006,60.34663704698801,1450.758101311353,1390.411464264365,0.26010529461113413,-1.7476897978474024
4.953781512605042,62.2825077223024,1450.758101311353,1388.4755935890505,0.26474808095940244,-2.0895153197577194
4.985594237695078,64.32320411677051,1450.758101311353,1386.4348971945824,0.2696827664727282,-2.4306572630316765
5.017406962785114,66.46624337607,1450.758101311353,1384.291857935283,0.27488989802610914,-2.771058760680228
5.04921968787515,68.70785371149509,1450.758101311353,1382.0502475998578,0.280345716098329,-3.1106741479991875
5.081032412965186,71.04289721834061,1450.758101311353,1379.7152040930123,0.2860222125902138,2.8337163998155006
5.112845138055222,73.4648058578698,1450.758101311353,1377.293295453483,0.29188723043896203,2.495765957358111
5.144657863145258,75.96553537746013,1450.758101311353,1374.7925659338928,0.29790461421399816,2.1586732161503055
5.176470588235294,78.53554236310993,1450.758101311353,1372.222558948243,0.30403442297927713,1.8224419273493797
5.20828331332533,81.16378982133688,1450.758101311353,1369.594311490016,0.310233218062204,1.4870669731155766
5.240096038415366,83.83778659396285,1450.758101311353,1366.92031471739,0.3164544386422018,1.1525351758455915
5.271908763505402,86.54366544042364,1450.758101311353,1364.2144358709293,0.322648876950766,0.8188261136146388
5.303721488595438,89.26630371057922,1450.758101311353,1361.4917976007737,0.32876526211017176,0.48591291274148685
5.335534213685474,91.98948913248682,1450.758101311353,1358.768612178866,0.3347509570857957,0.1537629980861395
5.36734693877551,94.69613134891074,1450.758101311353,1356.0619699624422,0.3405527669010444,-0.17766120939635088
5.399159663865546,97.36851750004485,1450.758101311353,1353.389583811308,0.34611784838552456,-0.508401650707056
5.430972388955582,99.98860747767549,1450.758101311353,1350.7694938336774,0.3513947027645703,-0.8385040393436037
5.4627851140456185,102.53836164379868,1450.758101311353,1348.2197396675542,0.3563342230768321,-1.1680173170504802
5.494597839135654,105.00009105026334,1450.758101311353,1345.7580102610896,0.3608907596759023,-1.496993145186122
5.52641056422569,107.35681779210199,1450.758101311353,1343.401283519251,0.3650231600198446,-1.8254854215509944
5.558223289315726,109.59263136168556,1450.758101311353,1341.1654699496673,0.3686957346652131,-2.153549813489516
5.590036014405762,111.69302599881803,1450.758101311353,1339.0650753125349,0.3718791007672592,-2.481243300247074
5.621848739495798,113.64520423397948,1450.758101311353,1337.1128970773734,0.3745508579911274,-2.808623720511215
5.653661464585834,115.43833316750624,1450.758101311353,1335.3197681438467,0.3766960595953783,-3.1357493243255674
5.68547418967587,117.0637424518452,1450.758101311353,1333.6943588595077,0.3783074530143618,2.8205069755149124
5.717286914765906,118.51505624797323,1450.758101311353,1332.2430450633797,0.3793854784504075,2.4937168046917573
5.749099639855943,119.78825529981145,1450.758101311353,1330.9698460115414,0.37993802930296267,2.167008582434548
5.780912364945978,120.88166933327557,1450.758101311353,1329.8764319780773,0.3799799930540892,1.8403266797454838
5.812725090036015,121.79590384839071,1450.758101311353,1328.9621974629622,0.37953260394192556,1.513617081774698
5.84453781512605,122.53370868627599,1450.758101311353,1328.224392625077,0.37862264817024044,1.1868277058574443
5.8763505402160865,123.0997982597903,1450.758101311353,1327.6583030515626,0.3772815678156187,0.8599086788945702
5.908163265306122,123.50063489518675,1450.758101311353,1327.2574664161662,0.37554451086363416,0.532812572813074
5.939975990396158,123.74418732163053,1450.758101311353,1327.0139139897224,0.37344937231205,0.20549459908764928
5.971788715486194,123.83967605142652,1450.758101311353,1326.9184252599264,0.3710358657924777,-0.12208723470766931
6.00360144057623,123.79731638011936,1450.758101311353,1326.9607849312335,0.36834465766887375,-0.44997200181392777
6.035414165666267,123.62806820896026,1450.758101311353,1327.1300331023926,0.36541658709902114,-0.7781957611913846
6.067226890756302,123.34340006923253,1450.758101311353,1327.4147012421204,0.36229198701908916,-1.106791484559234
6.099039615846339,122.95507280726451,1450.758101311353,1327.8030285040884,0.3590101131594717,-1.4357889998958144
