"k","deltaD","D_base","D_harmonic","amplitude","phase"
0.5,0.411861786666464,226.126491743922,225.714629957255,11.5619860398283,2.95200364434188
0.531812725090036,0.411987647851362,226.126491743922,225.71450409607,9.6339162472894,2.64006163153475
0.563625450180072,0.412120869068389,226.126491743922,225.714370874853,8.11547503226399,2.32810996005527
0.595438175270108,0.412261375494182,226.126491743922,225.714230368428,6.90323402802338,2.01614801375054
0.627250900360144,0.412409087110092,226.126491743922,225.714082656812,5.92360248810386,1.70417516901708
0.65906362545018,0.412563918550717,226.126491743922,225.713927825371,5.12324659908181,1.39219079457619
0.690876350540216,0.412725778941791,226.126491743922,225.71376596498,4.46286969663387,1.08019425117442
0.722689075630252,0.412894571726383,226.126491743922,225.713597172195,3.91308302010361,0.768184891239778
0.754501800720288,0.413070194480497,226.126491743922,225.713421549441,3.45160854323196,0.45616205851396
0.786314525810324,0.413252538716392,226.126491743922,225.713239205205,3.06134925871055,0.144125087670304
0.81812725090036,0.413441489672834,226.126491743922,225.713050254249,2.72903560923225,-0.167926696077165
0.849939975990396,0.413636926093943,226.126491743922,225.712854817828,2.44426152717295,-0.479993977369262
0.881752701080432,0.413838719992668,226.126491743922,225.712653023929,2.19878831157634,-0.792077451099611
0.913565426170468,0.414046736401758,226.126491743922,225.71244500752,1.98603543536635,-1.10417782281308
0.945378151260504,0.414260833109381,226.126491743922,225.712230910812,1.80070364699221,-1.41629580910358
0.97719087635054,0.414480860379001,226.126491743922,225.712010883543,1.63849291459707,-1.72843213800962
1.00900360144058,0.41470666065382,226.126491743922,225.711785083268,1.49588918136759,-2.0405875494072
1.04081632653061,0.414938068243742,226.126491743922,225.711553675678,1.37000160423361,-2.35276279539781
1.07262905162065,0.41517490899497,226.126491743922,225.711316834927,1.25843721602932,-2.6649586406918
1.10444177671068,0.41541699994076,226.126491743922,225.711074743981,1.15920360032353,-2.97717586298449
1.13625450180072,0.415664148932791,226.126491743922,225.710827594989,1.07063272613333,2.99377005385493
1.16806722689076,0.415916154251931,226.126491743922,225.71057558967,0.991320903176929,2.68150769070622
1.19987995198079,0.41617280419743,226.126491743922,225.710318939724,0.920081117515467,2.36922153592772
1.23169267707083,0.416433876653485,226.126491743922,225.710057867268,0.855904947432267,2.05691075630319
1.26350540216086,0.416699138631941,226.126491743922,225.70979260529,0.797931945907846,1.74457450390131
1.2953181272509,0.41696834578957,226.126491743922,225.709523398132,0.745424881830938,1.43221191577283
1.32713085234094,0.417241241919385,226.126491743922,225.709250502002,0.697749607853618,1.11982211366711
1.35894357743097,0.417517558413692,226.126491743922,225.708974185508,0.65435860415695,0.807404203770907
1.39075630252101,0.417797013697793,226.126491743922,225.708694730224,0.614777459656104,0.494957276472323
1.42256902761104,0.418079312632955,226.126491743922,225.708412431289,0.578593713439148,0.182480406153014
1.45438175270108,0.418364145886443,226.126491743922,225.708127598035,0.545447602586708,-0.130027348987616
1.48619447779112,0.418651189267365,226.126491743922,225.707840554654,0.515024357480646,-0.442566947072398
1.51800720288115,0.418940103025989,226.126491743922,225.707551640896,0.487047759255284,-0.755139362646318
1.54981992797119,0.419230531114891,226.126491743922,225.707261212807,0.461274731351149,-1.06774558673163
1.58163265306122,0.419522100409665,226.126491743922,225.706969643512,0.437490782016988,-1.3803866268331
1.61344537815126,0.419814419887103,226.126491743922,225.706677324035,0.4155061499655,-1.69306350688769
1.6452581032413,0.420107079758054,226.126491743922,225.706384664164,0.395152533376167,-2.00577726715268
1.67707082833133,0.420399650553236,226.126491743922,225.706092093369,0.376280304705982,-2.31852896402547
1.70888355342137,0.420691682158832,226.126491743922,225.705800061763,0.358756131564397,-2.63131966978789
1.7406962785114,0.420982702799222,226.126491743922,225.705509041123,0.342460938197338,-2.94415047226701
1.77250900360144,0.421272217964116,226.126491743922,225.705219525958,0.327288153645898,3.02616283277566
1.80432172869148,0.421559709277034,226.126491743922,225.704932034645,0.313142201973838,2.7132485134583
1.83613445378151,0.421844633301902,226.126491743922,225.70464711062,0.299937197541001,2.40029074550032
1.86794717887155,0.422126420284457,226.126491743922,225.704365323637,0.28759581448885,2.08728838427041
1.89975990396158,0.422404472825065,226.126491743922,225.704087271097,0.276048304672806,1.77424027286673
1.93157262905162,0.42267816447935,226.126491743922,225.703813579442,0.265231642443322,1.46114524316456
1.96338535414166,0.422946838282741,226.126491743922,225.703544905639,0.255088778114565,1.14800211702479
1.99519807923169,0.423209805195484,226.126491743922,225.703281938726,0.245567984804456,0.834809707678032
2.02701080432173,0.423466342463485,226.126491743922,225.703025401458,0.236622285691325,0.521566821300472
2.05882352941176,0.423715691891459,226.126491743922,225.70277605203,0.228208950700053,0.208272258798452
2.0906362545018,0.423957058023888,226.126491743922,225.702534685898,0.22028905327344,-0.105075182179715
2.12244897959184,0.424189606229447,226.126491743922,225.702302137692,0.212827079261581,-0.418476704985054
2.15426170468187,0.424412460684607,226.126491743922,225.702079283237,0.205790581118677,-0.731933511441478
2.18607442977191,0.424624702252402,226.126491743922,225.701867041669,0.199149871571132,-1.04544679902908
2.21788715486194,0.424825366251241,226.126491743922,225.701666377671,0.192877751744076,-1.35901775775359
2.24969987995198,0.425013440110035,226.126491743922,225.701478303812,0.186949269430392,-1.67264756667676
2.28151260504202,0.42518786090551,226.126491743922,225.701303883016,0.181341503778254,-1.98633739008125
2.31332533013205,0.42534751277708,226.126491743922,225.701144231145,0.17603337317665,-2.30008837324193
2.34513805522209,0.425491224216273,226.126491743922,225.701000519706,0.171005463548161,-2.61390163777455
2.37695078031213,0.425617765226889,226.126491743922,225.700873978695,0.166239874625337,-2.92777827653102
2.40876350540216,0.425725844352684,226.126491743922,225.700765899569,0.161720082101826,3.04146595916986
2.4405762304922,0.425814105571106,226.126491743922,225.700677638351,0.157430813819617,2.72745943693157
2.47238895558223,0.425881125050353,226.126491743922,225.700610618871,0.153357938386192,2.41338649301635
2.50420168067227,0.425925407769853,226.126491743922,225.700566336152,0.14948836481604,2.09924621087152
2.5360144057623,0.425945384004194,226.126491743922,225.700546359918,0.145809951963986,1.78503773617397
2.56782713085234,0.425939405672068,226.126491743922,225.70055233825,0.142311426667925,1.47076028535009
2.59963985594238,0.42590574255388,226.126491743922,225.700586001368,0.138982309648531,1.15641315478439
2.63145258103241,0.425842578382799,226.126491743922,225.700649165539,0.135812848326536,0.841995730750283
2.66326530612245,0.42574800681669,226.126491743922,225.700743737105,0.132793955816631,0.527507500093954
2.69507803121249,0.425620027301107,226.126491743922,225.700871716621,0.129917155442923,0.212948061700524
2.72689075630252,0.425456540835683,226.126491743922,225.701035203086,0.127174530195906,-0.10168286123222
2.75870348139256,0.425255345660815,226.126491743922,225.701236398261,0.12455867661673,-0.416385408091477
2.79051620648259,0.425014132884542,226.126491743922,225.701477611037,0.122062662652246,-0.731159566902996
2.82232893157263,0.424730482074807,226.126491743922,225.701761261847,0.11967998907523,-1.0460051595324
2.85414165666266,0.424401856846572,226.126491743922,225.702089887075,0.117404554108887,-1.36092182603474
2.8859543817527,0.424025600479723,226.126491743922,225.702466143442,0.115230620934622,-1.67590900816337
2.91776710684274,0.423598931610456,226.126491743922,225.702892812311,0.113152787797176,-1.99096593206182
2.94957983193277,0.423118940044503,226.126491743922,225.703372803877,0.11116596045273,-2.30609159017769
2.98139255702281,0.422582582750806,226.126491743922,225.703909161171,0.109265326733685,-2.62128472245481
3.01320528211285,0.421986680101099,226.126491743922,225.704505063821,0.107446333029172,-2.93654379688085
3.04501800720288,0.421327912431735,226.126491743922,225.70516383149,0.105704662503188,3.03131831768825
3.07683073229292,0.420602817013759,226.126491743922,225.705888926908,0.104036214893186,2.71593314322161
3.10864345738295,0.419807785528747,226.126491743922,225.706683958393,0.102437087751009,2.40048845625891
3.14045618247299,0.418939062159552,226.126491743922,225.707552681762,0.100903559005705,2.08498707992196
3.17226890756303,0.417992742417198,226.126491743922,225.708499001505,0.0994320707442546,1.7694322116524
3.20408163265306,0.416964772838497,226.126491743922,225.709526971083,0.0980192141215957,1.45382744332018
3.2358943577431,0.415850951700605,226.126491743922,225.710640792221,0.0966617153258756,1.13817678055582
3.26770708283313,0.414646930912369,226.126491743922,225.711844813009,0.095356422538774,0.822484660926384
3.29951980792317,0.413348219253436,226.126491743922,225.713143524668,0.094100293843795,0.506755970517076
3.33133253301321,0.411950187143702,226.126491743922,225.714541556778,0.0928903860481992,0.190996058416707
3.36314525810324,0.410448073134091,226.126491743922,225.716043670788,0.0917238443961491,-0.124789251461169
3.39495798319328,0.408836992317333,226.126491743922,225.717654751604,0.0905978931621773,-0.440593651862069
3.42677070828331,0.407111946860795,226.126491743922,225.719379797061,0.0895098271247688,-0.756410347693794
3.45858343337335,0.405267838862983,226.126491743922,225.721223905059,0.0884570039297269,-1.07223205634131
3.49039615846339,0.403299485731452,226.126491743922,225.72319225819,0.0874368373618651,-1.38805101366356
3.52220888355342,0.401201638267054,226.126491743922,225.725290105655,0.0864467915509918,-1.70385898662079
3.55402160864346,0.398969001623186,226.126491743922,225.727522742299,0.085484376144036,-2.01964729355679
3.58583433373349,0.39659625928212,226.126491743922,225.72989548464,0.0845471424789034,-2.33540683323191
3.61764705882353,0.394078100155411,226.126491743922,225.732413643766,0.0836326807968793,-2.65112812376678
3.64945978391357,0.391409248872122,226.126491743922,225.73508249505,0.0827386185287203,-2.96680135271053
3.6812725090036,0.388584499262635,226.126491743922,225.737907244659,0.0818626196842359,3.00076886769339
3.71308523409364,0.385598750983263,226.126491743922,225.740892992939,0.0810023853660356,2.68522219569219
3.74489795918367,0.382447049150528,226.126491743922,225.744044694771,0.0801556554143693,2.36975431208147
3.77671068427371,0.379124626771841,226.126491743922,225.74736711715,0.0793202111716589,2.05437558430219
3.80852340936375,0.375626949669567,226.126491743922,225.750864794252,0.0784938793319399,1.73909624909202
3.84033613445378,0.371949763499003,226.126491743922,225.754541980423,0.0776745368122258,1.42392626953621
3.87214885954382,0.368089142366955,226.126491743922,225.758402601555,0.0768601165501255,1.10887517276396
3.90396158463385,0.364041538463937,226.126491743922,225.762450205458,0.0760486140955193,0.793951867548122
3.93577430972389,0.359803832038978,226.126491743922,225.766687911883,0.0752380948249575,0.479164441306282
3.96758703481393,0.355373380977227,226.126491743922,225.771118362945,0.0744267015673432,0.164519936292041
3.99939975990396,0.350748069190587,226.126491743922,225.775743674731,0.0736126623904306,-0.149975894894369
4.031212484994,0.345926353011237,226.126491743922,225.780565390911,0.0727942982623862,-0.464318853963877
4.06302521008403,0.340907304787834,226.126491743922,225.785584439134,0.071970030274075,-0.778506580833568
4.09483793517407,0.335690652936506,226.126491743922,225.790801090985,0.0711383860891082,-1.09253885538829
4.12665066026411,0.330276817789411,226.126491743922,225.796214926132,0.0702980052833649,-1.40641791529703
4.15846338535414,0.324666942720427,226.126491743922,225.801824801201,0.0694476432468498,-1.72014878765421
4.19027611044418,0.31886292020701,226.126491743922,225.807628823715,0.0685861733511235,-2.03373963185288
4.22208883553421,0.312867412703412,226.126491743922,225.813624331218,0.067712587136996,-2.34720209082453
4.25390156062425,0.30668386844934,226.126491743922,225.819807875472,0.0668259923507173,-2.66055164763939
4.28571428571429,0.300316532605365,226.126491743922,225.826175211316,0.0659256087519778,-2.97380798449745
4.31752701080432,0.293770454379796,226.126491743922,225.832721289542,0.0650107617316456,2.99618996578437
4.34933973589436,0.287051491074152,226.126491743922,225.839440252848,0.0640808739079069,2.68304243490808
4.38115246098439,0.280166310208159,226.126491743922,225.846325433714,0.0631354550111751,2.36990030992803
4.41296518607443,0.273122391070956,226.126491743922,225.853369352851,0.062174090514694,2.05672355642978
4.44477791116447,0.265928027168883,226.126491743922,225.860563716753,0.0611964296122116,1.74346618050847
4.4765906362545,0.258592331081758,226.126491743922,225.86789941284,0.0602021732792064,1.43007588341501
4.50840336134454,0.25112524319465,226.126491743922,225.875366500727,0.0591910632733168,1.11649371086868
4.54021608643457,0.243537545628072,226.126491743922,225.882954198294,0.0581628730270988,0.802653689462291
4.57202881152461,0.235840882449452,226.126491743922,225.890650861472,0.0571174014582309,0.488482439996033
4.60384153661465,0.228047786914829,226.126491743922,225.898443957007,0.0560544707668841,0.173898754888562
4.63565426170468,0.220171716072542,226.126491743922,225.906320027849,0.0549739293078897,-0.141186875844401
4.66746698679472,0.212227092573727,226.126491743922,225.914264651348,0.0538756606194393,-0.45687280800799
4.69927971188475,0.204229352995924,226.126491743922,225.922262390926,0.0527595996655082,-0.773266876037383
4.73109243697479,0.196195001416186,226.126491743922,225.930296742506,0.0516257573125045,-1.09048713648701
4.76290516206483,0.188141666392312,226.126491743922,225.938350077529,0.0504742540193593,-1.4086627436234
4.79471788715486,0.180088158944812,226.126491743922,225.946403584977,0.0493053636812113,-1.72793497689598
4.8265306122449,0.172054528604548,226.126491743922,225.954437215317,0.0481195685354549,-2.04845843572516
4.85834333733493,0.164062114120156,226.126491743922,225.962429629802,0.0469176260165811,-2.37040240868052
4.89015606242497,0.156133585027078,226.126491743922,225.970358158895,0.0457006484285077,-2.69395240975215
4.92196878751501,0.148292969988489,226.126491743922,225.978198773933,0.0444701962749106,-3.01931185115816
4.95378151260504,0.140565667639692,226.126491743922,225.985926076282,0.0432283860192812,2.93648152132595
4.98559423769508,0.13297843562728,226.126491743922,225.993513308294,0.0419780128825167,2.60681270931717
5.01740696278511,0.125559353639005,226.126491743922,226.000932390283,0.0407226889367145,2.27459987011608
5.04921968787515,0.118337756490888,226.126491743922,226.008153987431,0.0394669960769112,1.93955222967222
5.08103241296519,0.111344133780534,226.126491743922,226.015147610141,0.0382166522324274,1.60135559320502
5.11284513805522,0.104609993238483,226.126491743922,226.021881750683,0.0369786871062938,1.25967431615298
5.14465786314526,0.0981676857156515,226.126491743922,226.028324058206,0.0357616203884371,0.914156026763066
5.17647058823529,0.092050190726269,226.126491743922,226.034441553196,0.0345756302730605,0.564440403295131
5.20828331332533,0.0862908626128842,226.126491743922,226.040200881309,0.0334326927328601,0.210173611059209
5.24009603841537,0.0809231386863303,226.126491743922,226.045568605235,0.0323466621367759,-0.148969836053077
5.2719087635054,0.0759802120868187,226.126491743922,226.050511531835,0.0313332519823329,-0.513256235824777
5.30372148859544,0.0714946735668605,226.126491743922,226.054997070355,0.0304098628512329,-0.882852247342759
5.33553421368547,0.0674981278560267,226.126491743922,226.058993616066,0.0295951978160405,-1.25777621930163
5.36734693877551,0.0640207916666213,226.126491743922,226.062470952255,0.0289086110934405,-1.63784603708986
5.39915966386555,0.0610910816665466,226.126491743922,226.065400662255,0.0283691632456939,-2.02263257287968
5.43097238895558,0.0587352018046374,226.126491743922,226.067756542117,0.0279944124663961,-2.41143179489881
5.46278511404562,0.056976740156415,226.126491743922,226.069515003765,0.0277990525422926,-2.80326971894856
5.49459783913565,0.0558362858931787,226.126491743922,226.070655458029,0.0277935918906432,3.08623527035045
5.52641056422569,0.0553310770212931,226.126491743922,226.0711606669,0.027983316201456,2.6920415738851
5.55822328931573,0.0554746891505715,226.126491743922,226.071017054771,0.0283677528691105,2.2986788692758
5.59003601440576,0.0562767747283033,226.126491743922,226.070214969193,0.0289407508792121,1.90738630435557
5.6218487394958,0.057742860927732,226.126491743922,226.068748882994,0.0296911409274232,1.51919976215441
5.65366146458583,0.0598742127558012,226.126491743922,226.066617531166,0.0306038095518248,1.13489363118376
5.68547418967587,0.0626677660050063,226.126491743922,226.063823977917,0.0316609581141057,0.754966256094331
5.71728691476591,0.0661161325137698,226.126491743922,226.060375611408,0.0328433326899786,0.379661239671942
5.74909963985594,0.070207677917125,226.126491743922,226.056284066005,0.0341312776814471,0.00901087785030081
5.78091236494598,0.0749266697813198,226.126491743922,226.05156507414,0.0355055455009789,-0.357111969590173
5.81272509003601,0.0802534918326785,226.126491743922,226.046238252089,0.0369478586449623,-0.718943723757973
5.84453781512605,0.0861649180196196,226.126491743922,226.040326825902,0.0384412583547401,-1.07678737301445
5.87635054021609,0.0926344384736524,226.126491743922,226.033857305448,0.0399702886010921,-1.43097927598637
5.90816326530612,0.0996326281338895,226.126491743922,226.026859115788,0.041521063425663,-1.78186522358144
5.93997599039616,0.107127547909727,226.126491743922,226.019364196012,0.0430812575960203,-2.12978435161374
5.97178871548619,0.115085167798071,226.126491743922,226.011406576124,0.0446400504686603,-2.47505914898556
6.00360144057623,0.123469801334807,226.126491743922,226.003021942587,0.0461880437586384,-2.81798990182026
6.03541416566627,0.132244541114943,226.126491743922,225.994247202807,0.0477171666619659,3.12433311088597
6.0672268907563,0.141371685809872,226.126491743922,225.985120058112,0.0492205765640959,2.78528888281311
6.09903961584634,0.150813150080808,226.126491743922,225.975678593841,0.0506925600704282,2.44783678064701
6.13085234093637,0.160530849960963,226.126491743922,225.965960893961,0.0521284368815372,2.11177386783671
6.16266506602641,0.170487057583131,226.126491743922,225.956004686339,0.0535244677126287,1.77691841574393
6.19447779111645,0.180644720490051,226.126491743922,225.945847023432,0.0548777667138366,1.44310798882263
6.22629051620648,0.190967742119255,226.126491743922,225.935524001803,0.0561862184631513,1.11019755279363
6.25810324129652,0.201421221347175,226.126491743922,225.925070522575,0.0574483994265598,0.778057688217463
6.28991596638655,0.211971650163974,226.126491743922,225.914520093758,0.0586635037141347,0.446572952791654
6.32172869147659,0.222587069604089,226.126491743922,225.903904674318,0.0598312729478097,0.115640410659134
6.35354141656663,0.233237184954476,226.126491743922,225.893254558967,0.0609519300628902,-0.21483166854271
6.38535414165666,0.243893442000285,226.126491743922,225.882598301921,0.0620261168740421,-0.544924947450537
6.4171668667467,0.254529066644778,226.126491743922,225.871962677277,0.0630548352400142,-0.874712007346037
6.44897959183673,0.265119070668874,226.126491743922,225.861372673253,0.0640393916584229,-1.20425719757571
6.48079231692677,0.275640226691451,226.126491743922,225.85085151723,0.0649813451141171,-1.53361736354967
6.51260504201681,0.286071015570741,226.126491743922,225.840420728351,0.0658824579948191,-1.86284246900604
