"k","deltaD","D_base","D_harmonic","amplitude","phase"
0.5,8.5144557858888,583.273891416929,574.75943563104,19.4115691592591,-0.193664661117225
0.531812725090036,8.50084606065025,583.273891416929,574.773045356279,16.1728455644573,-0.506175466896081
0.563625450180072,8.48646073637394,583.273891416929,574.787430680555,13.6223270370456,-0.81875439362754
0.595438175270108,8.47131190207961,583.273891416929,574.80257951485,11.5862342146509,-1.13140592477806
0.627250900360144,8.45541254808529,583.273891416929,574.818478868844,9.94092328370149,-1.44413461468938
0.65906362545018,8.43877660150156,583.273891416929,574.835114815428,8.59678697157429,-1.75694509278661
0.690876350540216,8.42141896411658,583.273891416929,574.852472452813,7.48780336521652,-2.06984206771073
0.722689075630252,8.40335555280274,583.273891416929,574.870535864126,6.56459764107832,-2.38283033139338
0.754501800720288,8.38460334251283,583.273891416929,574.889288074416,5.78974213208817,-2.6959147630537
0.786314525810324,8.36518041192312,583.273891416929,574.908711005006,5.13451398073466,-3.00910033314194
0.81812725090036,8.34510599184421,583.273891416929,574.928785425085,4.57662087539227,2.96079319997436
0.849939975990396,8.32440051645801,583.273891416929,574.949490900471,4.09858142634487,2.64739005751177
0.881752701080432,8.30308567749898,583.273891416929,574.97080573943,3.68655556960437,2.33387027967532
0.913565426170468,8.28118448145267,583.273891416929,574.992706935476,3.32948905281011,2.02022849338532
0.945378151260504,8.25872130986579,583.273891416929,575.015170107063,3.01848020106969,1.70645921605451
0.97719087635054,8.23572198288412,583.273891416929,575.038169434045,2.74630603492008,1.39255685235863
1.00900360144058,8.21221382609303,583.273891416929,575.061677590836,2.50706400217486,1.07851569121097
1.04081632653061,8.18822574076103,583.273891416929,575.085665676168,2.29589852902003,0.764329902978944
1.07262905162065,8.16378827759081,583.273891416929,575.110103139338,2.10879044744075,0.449993536977318
1.10444177671068,8.1389337140572,583.273891416929,575.134957702872,1.94239348712501,0.135500519285266
1.13625450180072,8.113696135429,583.273891416929,575.1601952815,1.7939063180875,-0.179155349066874
1.16806722689076,8.08811151955422,583.273891416929,575.185779897375,1.66097167716721,-0.493980393485411
1.19987995198079,8.06221782549198,583.273891416929,575.211673591437,1.54159629444584,-0.808981066716202
1.23169267707083,8.03605508605563,583.273891416929,575.237836330874,1.43408691500181,-1.12416394919815
1.26350540216086,8.00966550432997,583.273891416929,575.264225912599,1.3369988648284,-1.43953574879178
1.2953181272509,7.9830935542102,583.273891416929,575.290797862719,1.24909445957788,-1.75510329980413
1.32713085234094,7.95638608499678,583.273891416929,575.317505331932,1.16930918611505,-2.07087356122349
1.35894357743097,7.92959243006021,583.273891416929,575.344298986869,1.09672405957323,-2.38685361406603
1.39075630252101,7.90276451957254,583.273891416929,575.371126897357,1.03054291524315,-2.70305065773181
1.42256902761104,7.87595699727387,583.273891416929,575.397934419655,0.970073665567452,-3.01947200525697
1.45438175270108,7.84922734121938,583.273891416929,575.42466407571,0.914712759749301,2.94706022983854
1.48619447779112,7.82263598841234,583.273891416929,575.451255428517,0.863932243025427,2.63016791216185
1.51800720288115,7.79624646319667,583.273891416929,575.477644953732,0.817268936224996,2.31302873634898
1.54981992797119,7.77012550923382,583.273891416929,575.503765907695,0.774315352496663,1.99563500881476
1.58163265306122,7.74434322483967,583.273891416929,575.529548192089,0.734712043508797,1.67797896720125
1.61344537815126,7.71897320140658,583.273891416929,575.554918215523,0.698141126820917,1.36005279461177
1.6452581032413,7.6940926645533,583.273891416929,575.579798752376,0.664320793151235,1.04184863598102
1.67707082833133,7.66978261759539,583.273891416929,575.604108799334,0.63300062966693,0.723358616757735
1.70888355342137,7.64612798682026,583.273891416929,575.627763430109,0.603957625319697,0.404574864080351
1.7406962785114,7.62321776798171,583.273891416929,575.650673648947,0.57699274825252,0.0854895306264662
1.77250900360144,7.60114517329987,583.273891416929,575.672746243629,0.551928004653562,-0.233905178684292
1.80432172869148,7.58000777815255,583.273891416929,575.693883638777,0.528603904101138,-0.553616976959094
1.83613445378151,7.55990766650552,583.273891416929,575.713983750424,0.506877269182669,-0.873653462408209
1.86794717887155,7.54095157398217,583.273891416929,575.732939842947,0.486619337560663,-1.19402208207818
1.89975990396158,7.52325102731209,583.273891416929,575.750640389617,0.46771411317144,-1.51473009211132
1.93157262905162,7.50692247872212,583.273891416929,575.766968938207,0.450056930240188,-1.83578451443008
1.96338535414166,7.49208743363602,583.273891416929,575.781803983293,0.433553199562961,-2.15719208977727
1.99519807923169,7.47887256982688,583.273891416929,575.795018847102,0.418117311283435,-2.47895922708898
2.02701080432173,7.46740984594487,583.273891416929,575.806481570984,0.403671672354606,-2.80109194922883
2.05882352941176,7.45783659707331,583.273891416929,575.816054819856,0.390145860175321,-3.12359583517575
2.0906362545018,7.45029561469971,583.273891416929,575.823595802229,0.377475876649799,2.8367093483472
2.12244897959184,7.44493520818662,583.273891416929,575.828956208743,0.365603489225034,2.51344848247386
2.15426170468187,7.44190924451243,583.273891416929,575.831982172417,0.354475647402479,2.18980300637008
2.18607442977191,7.44137716271325,583.273891416929,575.832514254216,0.344043964852976,1.86576975793477
2.21788715486194,7.44350395910385,583.273891416929,575.830387457825,0.334264258644729,1.54134635214544
2.24969987995198,7.44846013898712,583.273891416929,575.825431277942,0.325096138263831,1.21653125326866
2.28151260504202,7.45642163017635,583.273891416929,575.817469786753,0.316502638099726,0.891323847279536
2.31332533013205,7.46756965327143,583.273891416929,575.806321763658,0.308449887915249,0.565724513516689
2.34513805522209,7.48209054323911,583.273891416929,575.79180087369,0.300906816544163,0.239734694461556
2.37695078031213,7.50017551647034,583.273891416929,575.773715900459,0.293844884680393,-0.086643037603
2.40876350540216,7.52202037712516,583.273891416929,575.751871039804,0.287237843157179,-0.413404918424183
2.4405762304922,7.54782515624936,583.273891416929,575.72606626068,0.28106151357662,-0.740545935579119
2.47238895558223,7.57779367686669,583.273891416929,575.696097740062,0.275293588550654,-1.06805977980766
2.50420168067227,7.61213303803731,583.273891416929,575.661758378892,0.269913449164791,-1.39593880550108
2.5360144057623,7.6510530107513,583.273891416929,575.622838406178,0.264901997582529,-1.72417400199075
2.56782713085234,7.6947653385198,583.273891416929,575.579126078409,0.260241502979279,-2.05275497725999
2.59963985594238,7.74348293567255,583.273891416929,575.530408481257,0.255915459235334,-2.38166995563233
2.63145258103241,7.79741897668725,583.273891416929,575.476472440242,0.251908453032747,-2.71090579086606
2.66326530612245,7.85678587043367,583.273891416929,575.417105546495,0.248206041195496,-3.04044799590516
2.69507803121249,7.92179411402071,583.273891416929,575.352097302908,0.244794636289094,2.91290451688033
2.72689075630252,7.99265102206277,583.273891416929,575.281240394866,0.241661399658354,2.58279814116723
2.75870348139256,8.0695593286606,583.273891416929,575.204332088269,0.238794141232811,2.25243633518348
2.79051620648259,8.15271566129491,583.273891416929,575.121175755634,0.236181225570067,1.92183828966423
2.82232893157263,8.24230888817419,583.273891416929,575.031582528755,0.233811483740849,1.59102411338648
2.85414165666266,8.33851834343204,583.273891416929,574.935373073497,0.231674130786282,1.26001469407914
2.8859543817527,8.44151193796142,583.273891416929,574.832379478968,0.229758688599722,0.9288315432094
2.91776710684274,8.55144416761095,583.273891416929,574.722447249318,0.228054914202844,0.597496626401851
2.94957983193277,8.66845403497678,583.273891416929,574.605437381952,0.22655273349878,0.26603218165605
2.98139255702281,8.79266290606563,583.273891416929,574.481228510864,0.225242180693976,-0.065539472107698
3.01320528211285,8.92417232862442,583.273891416929,574.349719088305,0.224113343683711,-0.397196133337062
3.04501800720288,9.06306184484026,583.273891416929,574.210829572089,0.22315631579259,-0.72891591989636
3.07683073229292,9.20938683726649,583.273891416929,574.064504579663,0.222361154347821,-1.06067747164151
3.10864345738295,9.3631764530088,583.273891416929,573.91071496392,0.221717846636139,-1.39246015021104
3.14045618247299,9.52443165718171,583.273891416929,573.749459759747,0.221216283850095,-1.72424423273042
3.17226890756303,9.69312347206824,583.273891416929,573.580767944861,0.220846243660365,-2.05601109621504
3.20408163265306,9.8691914629203,583.273891416929,573.404699954009,0.220597382051107,-2.38774338961939
3.2358943577431,10.0525425344969,583.273891416929,573.221348882432,0.220459235017853,-2.71942519070831
3.26770708283313,10.2430501037824,583.273891416929,573.030841313147,0.220421230645347,-3.05104214520954
3.29951980792317,10.4405537133958,583.273891416929,572.833337703533,0.220472711948965,2.90060372114517
3.33133253301321,10.6448591465612,583.273891416929,572.629032270368,0.220602970673641,2.5691526764636
3.36314525810324,10.8557390977711,583.273891416929,572.418152319158,0.220801291996202,2.2377990515795
3.39495798319328,11.0729344432129,583.273891416929,572.200956973716,0.221057009772221,1.90654996144948
3.42677070828331,11.2961561415555,583.273891416929,571.977735275374,0.221359571613887,1.57541058739774
3.45858343337335,11.5250877789321,583.273891416929,571.748803637997,0.221698612692613,1.24438417734944
3.49039615846339,11.7593887523444,583.273891416929,571.514502664585,0.222064036747865,0.913472071021607
3.52220888355342,11.9986980638674,583.273891416929,571.275193353062,0.222446102375514,0.582673749428748
3.55402160864346,12.2426386749495,583.273891416929,571.03125274198,0.222835512293641,0.251986907630653
3.58583433373349,12.4908223469205,583.273891416929,570.783069070009,0.223223502971972,-0.0785924507723261
3.61764705882353,12.7428548719006,583.273891416929,570.531036545029,0.22360193179433,-0.409069899296911
3.64945978391357,12.9983415790447,583.273891416929,570.275549837884,0.223963358828692,-0.73945245666581
3.6812725090036,13.2568929858381,583.273891416929,570.016998431091,0.224301120327664,-1.06974843994203
3.71308523409364,13.5181304541242,583.273891416929,569.755760962805,0.224609391283382,-1.39996730560138
3.74489795918367,13.7816917065728,583.273891416929,569.492199710356,0.224883234713355,-1.73011948164118
3.77671068427371,14.0472360618394,583.273891416929,569.22665535509,0.225118635841903,-2.06021619394176
3.80852340936375,14.3144492556696,583.273891416929,568.95944216126,0.225312519937759,-2.39026929011865
3.84033613445378,14.5830477301963,583.273891416929,568.690843686733,0.225462753233397,-2.72029106402368
3.87214885954382,14.8527822936456,583.273891416929,568.421109123283,0.225568127040737,-3.050294083873
3.90396158463385,15.1234410763716,583.273891416929,568.150450340558,0.225628325844217,2.9028942804699
3.93577430972389,15.3948517349543,583.273891416929,567.879039681975,0.225643880751645,2.57289078561795
3.96758703481393,15.6668828824986,583.273891416929,567.607008534431,0.225616110179293,2.24286830392658
3.99939975990396,15.9394447486403,583.273891416929,567.334446668289,0.225547050014515,1.91281472878787
4.031212484994,16.2124890958244,583.273891416929,567.061402321105,0.225439375723243,1.58271840256806
4.06302521008403,16.4860084380736,583.273891416929,566.787882978856,0.225296318950453,1.25256822346276
4.09483793517407,16.7600346240646,583.273891416929,566.513856792865,0.225121581109424,0.922353738198228
4.12665066026411,17.0346368575065,583.273891416929,566.239254559423,0.224919246290004,0.592065220674577
4.15846338535414,17.3099192346148,583.273891416929,565.963972182314,0.22469369556224,0.261693736936269
4.19027611044418,17.5860178811683,583.273891416929,565.687873535761,0.22444952443756,-0.0687688029200867
4.22208883553421,17.8630977707443,583.273891416929,565.410793646185,0.224191464903025,-0.399329605129598
4.25390156062425,18.1413493018913,583.273891416929,565.132542115038,0.223924313089708,-0.729994964061432
4.28571428571429,18.420984705941,583.273891416929,564.852906710988,0.223652863295298,-1.06077024451822
4.31752701080432,18.702234349559,583.273891416929,564.57165706737,0.223381848769156,-1.39165987360571
4.34933973589436,18.9853429876953,583.273891416929,564.288548429234,0.223115889396256,-1.72266734127462
4.38115246098439,19.2705660138432,583.273891416929,564.003325403086,0.222859446190546,-2.05379520869
4.41296518607443,19.5581657459701,583.273891416929,563.715725670959,0.222616782330155,-2.385045123651
4.44477791116447,19.8484077784649,583.273891416929,563.425483638464,0.222391930335175,-2.71641784235924
4.4765906362545,20.1415574232651,583.273891416929,563.132333993664,0.222188664899738,-3.04791325690897
4.50840336134454,20.4378762570958,583.273891416929,562.836015159833,0.22201048083854,2.90365487923639
4.54021608643457,20.7376187865979,583.273891416929,562.536272630331,0.221860575587944,2.57191768519793
4.57202881152461,21.0410292390345,583.273891416929,562.232862177895,0.221741835707187,2.24006295420083
4.60384153661465,21.3483384832392,583.273891416929,561.92555293369,0.221656826850132,1.90809387947079
4.63565426170468,21.6597610834107,583.273891416929,561.614130333518,0.221607786717076,1.57601431257505
4.66746698679472,21.9754924872012,583.273891416929,561.298398929728,0.221596620544841,1.24382871148749
4.69927971188475,22.2957063491825,583.273891416929,560.978185067747,0.221624898747573,0.911542085907009
4.73109243697479,22.62055199107,583.273891416929,560.653339425859,0.221693856377452,0.57915994017879
4.76290516206483,22.9501520009686,583.273891416929,560.323739415961,0.221804394131231,0.246688214174916
4.79471788715486,23.2845999752305,583.273891416929,559.989291441699,0.221957080683376,-0.0858667774996682
4.8265306122449,23.6239584081944,583.273891416929,559.649933008735,0.222152156178232,-0.418498407597346
4.85834333733493,23.9682567370038,583.273891416929,559.305634679925,0.222389536761108,-0.751199799224503
4.89015606242497,24.3174895507809,583.273891416929,558.956401866148,0.222668820070982,-1.08396388934453
4.92196878751501,24.6716149755722,583.273891416929,558.602276441357,0.222989291655214,-1.41678349238102
4.95378151260504,25.0305532485884,583.273891416929,558.243338168341,0.223349932299133,-1.74965136351242
4.98559423769508,25.3941854972546,583.273891416929,557.879705919675,0.223749426290589,-2.08256026125244
5.01740696278511,25.7623527403778,583.273891416929,557.511538676551,0.22418617066159,-2.4155030089194
5.04921968787515,26.1348551302563,583.273891416929,557.139036286673,0.224658285466006,-2.74847255461121
5.08103241296519,26.5114514556977,583.273891416929,556.762439961231,0.22516362516416,-3.08146202932267
5.11284513805522,26.8918589266286,583.273891416929,556.382032490301,0.225699791192065,2.86872050431436
5.14465786314526,27.2757532611744,583.273891416929,555.998138155755,0.226264145795107,2.53571076990192
5.17647058823529,27.6627690957006,583.273891416929,555.611122321229,0.22685382720328,2.20270006973324
5.20828331332533,28.0525007372654,583.273891416929,555.221390679664,0.227465766217647,1.86969400849358
5.24009603841537,28.4445032762013,583.273891416929,554.829388140728,0.228096704265674,1.53669775611502
5.2719087635054,28.8382940740463,583.273891416929,554.435597342883,0.228743212966507,1.20371600689313
5.30372148859544,29.2333546387799,583.273891416929,554.040536778149,0.22940171522622,0.870752942200291
5.33553421368547,29.6291328952731,583.273891416929,553.644758521656,0.230068507857892,0.537812196925643
5.36734693877551,30.0250458540155,583.273891416929,553.248845562914,0.230739785692159,0.204896829748126
5.39915966386555,30.4204826756213,583.273891416929,552.853408741308,0.231411667111127,-0.127990702668075
5.43097238895558,30.8148081223515,583.273891416929,552.459083294578,0.232080220902671,-0.460848567480353
5.46278511404562,31.2073663810613,583.273891416929,552.066525035868,0.232741494293927,-0.793675573409482
5.49459783913565,31.5974852346772,583.273891416929,551.676406182252,0.233391541982853,-1.12647118435398
5.52641056422569,31.9844805517076,583.273891416929,551.289410865221,0.234026455946263,-1.45923552881524
5.55822328931573,32.3676610555821,583.273891416929,550.906230361347,0.234642395762763,-1.7919694050696
5.59003601440576,32.7463333279907,583.273891416929,550.527558088938,0.235235619150879,-2.1246742820209
5.6218487394958,33.1198069931158,583.273891416929,550.154084423813,0.235802512387744,-2.45735229566326
5.65366146458583,33.4874000229599,583.273891416929,549.786491393969,0.23633962024362,-2.79000624108261
5.68547418967587,33.8484440981166,583.273891416929,549.425447318813,0.236843675043579,-3.12263955992669
5.71728691476591,34.2022899535825,583.273891416929,549.071601463347,0.23731162445158,2.82792898390025
5.74909963985594,34.5483126357896,583.273891416929,548.72557878114,0.237740657565008,2.49532409729308
5.78091236494598,34.8859165951526,583.273891416929,548.387974821777,0.238128228910846,2.16272582747901
5.81272509003601,35.2145405382529,583.273891416929,548.059350878676,0.23847207994861,1.83012836444369
5.84453781512605,35.5336619654289,583.273891416929,547.7402294515,0.238770257710604,1.49752538391635
5.87635054021609,35.8428013230523,583.273891416929,547.431090093877,0.23902113024673,1.16491008776557
5.90816326530612,36.1415257051463,583.273891416929,547.132365711783,0.239223398588663,0.832275248864128
5.93997599039616,36.4294520461339,583.273891416929,546.844439370795,0.239376105005515,0.499613260243834
5.97178871548619,36.7062497552473,583.273891416929,546.567641661682,0.23947863738878,0.166916188298607
6.00360144057623,36.9716427532536,583.273891416929,546.302248663676,0.239530729676386,-0.165824170273589
6.03541416566627,37.2254108833595,583.273891416929,546.04848053357,0.239532458301786,-0.498616228168076
6.0672268907563,37.4673906801419,583.273891416929,545.806500736787,0.239484234731796,-0.831468544258082
6.09903961584634,37.6974754927321,583.273891416929,545.576415924197,0.239386794233628,-1.16438975798167
6.13085234093637,37.9156149708734,583.273891416929,545.358276446056,0.239241181084735,-1.49738852190942
6.16266506602641,38.1218139345532,583.273891416929,545.152077482376,0.239048730506358,-1.83047343312861
6.19447779111645,38.3161306592534,583.273891416929,544.957760757676,0.238811047660798,-2.16365296412845
6.22629051620648,38.4986746192197,583.273891416929,544.775216797709,0.23852998410188,-2.49693539391072
6.25810324129652,38.6696037402281,583.273891416929,544.604287676701,0.238207612106555,-2.83032874007842
6.28991596638655,38.829121220895,583.273891416929,544.444770196034,0.237846197342282,3.1193446145085
6.32172869147659,38.9774719875292,583.273891416929,544.2964194294,0.237448170339701,2.78570675666101
6.35354141656663,39.1149388517543,583.273891416929,544.158952565175,0.237016097243301,2.4519361463055
6.38535414165666,39.2418384426203,583.273891416929,544.032052974309,0.236552650305016,2.11802644411761
6.4171668667467,39.3585169857109,583.273891416929,543.915374431218,0.236060578567937,1.78397187034292
6.44897959183673,39.4653460009393,583.273891416929,543.80854541599,0.235542679160971,1.44976725108501
6.48079231692677,39.5627179884194,583.273891416929,543.71117342851,0.235001769591564,1.11540805866566
6.51260504201681,39.651042168172,583.273891416929,543.622849248757,0.234440661384217,0.780890445564126
6.54441776710684,39.7307403346445,583.273891416929,543.543151082285,0.233862135368643,0.446211271534883
6.57623049219688,39.8022428812976,583.273891416929,543.471648535632,0.233268918874727,0.111368123607728
6.60804321728691,39.8659850440154,583.273891416929,543.407906372914,0.232663665042948,-0.223640671213196
