k,deltaD,D_base,D_harmonic,amplitude,phase
0.5,4.399935058778169,609.5774401434498,605.1775050846717,12.75847336103291,-0.16834079667651655
0.531812725090036,4.391187374606943,609.5774401434498,605.1862527688429,10.632139982783752,-0.47929032269582994
0.563625450180072,4.381928751964097,609.5774401434498,605.1955113914858,8.957502339120593,-0.790317379636292
0.595438175270108,4.372164671852374,609.5774401434498,605.2052754715975,7.620516111902527,-1.101427067287135
0.6272509003601441,4.361901044077058,609.5774401434498,605.2155390993728,6.540036829584115,-1.4126245660528167
0.65906362545018,4.3511442270681755,609.5774401434498,605.2262959163817,5.657255803536081,-1.7239151420196221
0.690876350540216,4.339901049097648,609.5774401434498,605.2375390943522,4.928842041243523,-2.035304151954236
0.7226890756302521,4.32817883094549,609.5774401434498,605.2492613125044,4.3223892759368585,-2.3467970482367173
0.7545018007202882,4.315985410060648,609.5774401434498,605.2614547333892,3.8133317753227884,-2.6583993837750155
0.7863145258103241,4.3033291662796955,609.5774401434498,605.2741109771702,3.3828166149512877,-2.9701168168715917
0.8181272509003601,4.29021904915578,609.5774401434498,605.2872210942941,3.016211214659493,3.001230191110667
0.8499399759903962,4.276664606955364,609.5774401434498,605.3007755364945,2.7020404584610698,2.689265142245068
0.8817527010804321,4.262676017393801,609.5774401434498,605.314764126056,2.4312191329267776,2.377167340385118
0.9135654261704682,4.248264120159092,609.5774401434498,605.3291760232908,2.196490475649997,2.064930657806463
0.9453781512605042,4.2334404513038635,609.5774401434498,605.343999692146,1.9920105928586154,1.7525488378454874
0.9771908763505401,4.218217279562168,609.5774401434498,605.3592228638877,1.813037451566486,1.4400154904972957
1.0090036014405763,4.202607644662976,609.5774401434498,605.3748324987869,1.6556957443159217,1.1273240881804196
1.0408163265306123,4.186625397710941,609.5774401434498,605.3908147457389,1.5167974181782218,0.8144679617007529
1.0726290516206483,4.170285243698572,609.5774401434498,605.4071548997513,1.393703468042058,0.5014402964692933
1.1044417767106842,4.153602786225406,609.5774401434498,605.4238373572244,1.284216617877273,0.18823412900863787
1.1362545018007202,4.136594574486594,609.5774401434498,605.4408455689633,1.186497333902182,-0.1251576561883184
1.1680672268907561,4.119278152602078,609.5774401434498,605.4581619908478,1.098997613225963,-0.43874232939033003
1.1998799519807923,4.101672111347625,609.5774401434498,605.4757680321022,1.0204084239356055,-0.7525273178763404
1.2316926770708283,4.083796142351844,609.5774401434498,605.493644001098,0.9496177091340201,-1.0665202076308349
1.2635054021608643,4.06567109481648,609.5774401434498,605.5117690486334,0.8856766242997068,-1.3807287443902296
1.2953181272509005,4.047319034808311,609.5774401434498,605.5301211086415,0.8277722350926239,-1.695160833950362
1.3271308523409364,4.028763307172198,609.5774401434498,605.5486768362777,0.7752053170283001,-2.0098245416259672
1.3589435774309724,4.010028600099076,609.5774401434498,605.5674115433508,0.7273722086688075,-2.324728090741123
1.3907563025210083,3.991141012375124,609.5774401434498,605.5862991310747,0.683749904059057,-2.639879860025928
1.4225690276110443,3.972128123327252,609.5774401434498,605.6053120201226,0.6438837479127077,-2.955288379769221
1.4543817527010803,3.9530190654641046,609.5774401434498,605.6244210779857,0.6073772331018142,3.0122229806041907
1.4861944777911165,3.9338445997933604,609.5774401434498,605.6435955436565,0.5738835046913446,2.696274790626456
1.5180072028811524,3.914637193779413,609.5774401434498,605.6628029496704,0.5430982558610958,2.380043410430635
1.5498199279711884,3.895431101879012,609.5774401434498,605.6820090415708,0.5147537642495144,2.063519772550532
1.5816326530612244,3.8762624485661945,609.5774401434498,605.7011776948837,0.488613866740072,1.7466947017876466
1.6134453781512605,3.8571693137287184,609.5774401434498,605.7202708297211,0.4644697097071735,1.4295589302945497
1.6452581032412965,3.8381918202790075,609.5774401434498,605.7392483231708,0.4421361425945019,1.1121031152967729
1.6770708283313325,3.819372223784967,609.5774401434498,605.7580679196649,0.4214486472519412,0.7943178597082836
1.7088835534213684,3.8007550038790896,609.5774401434498,605.7766851395708,0.4022607150809617,0.47619373590331215
1.7406962785114046,3.7823869571512887,609.5774401434498,605.7950531862986,0.3844415997882783,0.15772131291889807
1.7725090036014406,3.7643172911716647,609.5774401434498,605.8131228522782,0.36787438625307967,-0.16110881263694002
1.8043217286914766,3.746597719225406,609.5774401434498,605.8308424242244,0.3524543262948786,-0.4803059816940724
1.8361344537815125,3.72928255526449,609.5774401434498,605.8481575881854,0.3380874004888559,-0.7998794335754486
1.8679471788715485,3.7124288085014996,609.5774401434498,605.8650113349483,0.3246890719975765,-1.1198382623400793
1.8997599039615847,3.6960962769732078,609.5774401434498,605.8813438664766,0.31218320397344046,-1.4401913683759848
1.9315726290516206,3.6803476393076835,609.5774401434498,605.8970925041422,0.3005011166785455,-1.7609474050353802
1.9633853541416566,3.6652485438080475,609.5774401434498,605.9121915996418,0.28958076425395685,-2.0821147201454484
1.9951980792316926,3.6508676938436793,609.5774401434498,605.9265724496062,0.27936601420492224,-2.403701292283415
2.0270108043217285,3.637276928408255,609.5774401434498,605.9401632150416,0.26980601526840586,-2.725714661772924
2.0588235294117645,3.624551296549612,609.5774401434498,605.9528888469002,0.26085464149432946,-3.048161856443834
2.090636254501801,3.6127691242210176,609.5774401434498,605.9646710192288,0.2524700021811508,2.9121359948791348
2.1224489795918364,3.6020120719240367,609.5774401434498,605.9754280715258,0.24461400882063472,2.5888025178150875
2.154261704681873,3.5923651813326387,609.5774401434498,605.9850749621172,0.23725199147893716,2.2650180240806597
2.186074429771909,3.5839169088891367,609.5774401434498,605.9935232345607,0.23035235811380622,1.9407783752006493
2.2178871548619448,3.576759144147445,609.5774401434498,606.0006809993024,0.22388629123269344,1.616080385226159
2.2496998799519807,3.570987210427802,609.5774401434498,606.006452933022,0.21782747706547229,1.290921918443919
2.2815126050420167,3.566699845114499,609.5774401434498,606.0107402983353,0.2121518630774887,0.9653019881110425
2.3133253301320527,3.5639991566920344,609.5774401434498,606.0134409867578,0.2068374402064329,0.6392208548519698
2.3451380552220886,3.56299055539057,609.5774401434498,606.0144495880593,0.2018640466834141,0.31268012313477633
2.376950780312125,3.563782654066131,609.5774401434498,606.0136574893837,0.19721319070910173,-0.014317165971890833
2.4087635054021606,3.56648713572406,609.5774401434498,606.0109530077258,0.192867889610336,-0.3417664477623976
2.440576230492197,3.571218583885411,609.5774401434498,606.0062215595644,0.18881252341039734,-0.6696615547580953
2.472388955582233,3.5780942718030246,609.5774401434498,605.9993458716468,0.1850327010150817,-0.9979946477941625
2.504201680672269,3.587233906393408,609.5774401434498,605.9902062370564,0.18151513745247927,-1.3267561597469728
2.536014405762305,3.598759322632418,609.5774401434498,605.9786808208174,0.17824754081334523,-1.6559347543537348
2.567827130852341,3.61279412413262,609.5774401434498,605.9646460193172,0.17521850772429184,-1.9855173025374062
2.599639855942377,3.629463265636332,609.5774401434498,605.9479768778135,0.1724174263524362,-2.3154888785280465
2.6314525810324128,3.6488925733007136,609.5774401434498,605.9285475701491,0.1698343860900276,-2.645832777858415
2.6632653061224487,3.6712081988852105,609.5774401434498,605.9062319445646,0.16746009320331307,-2.9765305590015387
2.695078031212485,3.696536004340601,609.5774401434498,605.8809041391092,0.16528579185392706,2.9756231971672547
2.726890756302521,3.7250008738437828,609.5774401434498,605.8524392696061,0.16330319001463006,2.6442795661422895
2.758703481392557,3.7567259510605027,609.5774401434498,605.8207141923893,0.16150438990559549,2.312647004201576
2.790516206482593,3.7918318003694367,609.5774401434498,605.7856083430804,0.15988182267387865,1.9807499752291544
2.822328931572629,3.830435491974754,609.5774401434498,605.7470046514751,0.15842818712785803,1.648614088683339
2.854141656662665,3.872649612290843,609.5774401434498,605.704790531159,0.1571363924211077,1.3162659073801461
2.885954381752701,3.9185812027230895,609.5774401434498,605.6588589407268,0.1559995046567682,0.9837327347077578
2.917767106842737,3.968330632004495,609.5774401434498,605.6091095114454,0.15501069745453838,0.6510423843543443
2.949579831932773,4.021990409577029,609.5774401434498,605.5554497338728,0.15416320658795776,0.3182229362020933
2.9813925570228093,4.079643950139371,609.5774401434498,605.4977961933105,0.15345028885985007,-0.014697517490627691
3.013205282112845,4.141364302358738,609.5774401434498,605.4360758410911,0.15286518543805663,-0.3476911311537815
3.045018007202881,4.2072128578673755,609.5774401434498,605.3702272855825,0.15240108992158755,-0.6807305655506418
3.076830732292917,4.277238059915248,609.5774401434498,605.3002020835346,0.1520511214474238,-1.013789243285565
3.108643457382953,4.351474134382897,609.5774401434498,605.225966009067,0.15180830317919636,-1.3468415955576822
3.140456182472989,4.429939869118357,609.5774401434498,605.1475002743315,0.15166554653820893,-1.6798632957860078
3.172268907563025,4.5126374706158,609.5774401434498,605.064802672834,0.1516156415422194,-2.0128314761022668
3.204081632653061,4.599551529712585,609.5774401434498,604.9778886137373,0.15165125360450632,-2.3457249231836244
3.235894357743097,4.690648130062073,609.5774401434498,604.8867920133878,0.15176492711174294,-2.678524250454078
3.2677070828331334,4.785874134388678,609.5774401434498,604.7915660090612,0.151949096040209,-3.0112120442918062
3.2995198079231693,4.88515668376408,609.5774401434498,604.6922834596858,0.15219610178280332,2.9394123246662045
3.3313325330132053,4.988402944110362,609.5774401434498,604.5890371993395,0.1524982182418815,2.606991383140812
3.3631452581032413,5.095500131655626,609.5774401434498,604.4819400117942,0.15284768409401608,2.2747213379280082
3.3949579831932772,5.206315845009044,609.5774401434498,604.3711242984408,0.15323674195348302,1.9426108160392845
3.426770708283313,5.320698725785405,609.5774401434498,604.2567414176644,0.15365768395532645,1.610666169352395
3.458583433373349,5.4384794623294965,609.5774401434498,604.1389606811204,0.15410290305228863,1.2788914996258003
3.490396158463385,5.5594721421852,609.5774401434498,604.0179680012646,0.1545649490827189,0.9472887095837411
3.522208883553421,5.6834759487658175,609.5774401434498,603.893964194684,0.1550365884309324,0.6158575782546114
3.554021608643457,5.810277186576172,609.5774401434498,603.7671629568737,0.15551086588228066,0.28459585845565877
3.5858343337334935,5.939651607797941,609.5774401434498,603.6377885356519,0.15598116708894702,-0.046500605921522054
3.6176470588235294,6.071367001651879,609.5774401434498,603.506073141798,0.156441279925427,-0.3774377453611231
3.6494597839135654,6.205185997300987,609.5774401434498,603.3722541461489,0.15688545294012934,-0.7082231155913281
3.6812725090036014,6.340869021829008,609.5774401434498,603.2365711216208,0.15730844911329486,-1.038865736654329
3.7130852340936373,6.478177347577002,609.5774401434498,603.0992627958728,0.157705593218872,-1.3693759230176572
3.7448979591836733,6.616876158377636,609.5774401434498,602.9605639850722,0.15807281126037212,-1.6997651075742388
3.7767106842737093,6.756737562317539,609.5774401434498,602.8207025811323,0.1584066607024531,-2.030045662335546
3.8085234093637452,6.897543479776232,609.5774401434498,602.6798966636736,0.1587043505394389,-2.360230718526767
3.840336134453781,7.039088339580871,609.5774401434498,602.538351803869,0.15896375061063575,-2.6903339886434385
3.8721488595438176,7.181181522952443,609.5774401434498,602.3962586204974,0.15918338996867099,-3.020369592828458
3.9039615846338536,7.323649504084187,609.5774401434498,602.2537906393657,0.15936244450602075,2.9328334154988362
3.9357743097238895,7.466337647087016,609.5774401434498,602.1111024963628,0.1595007144223989,2.6028899798588525
3.9675870348139255,7.609111631049927,609.5774401434498,601.9683285123999,0.1595985924496084,2.272971032956795
3.9993997599039615,7.751858487341906,609.5774401434498,601.8255816561079,0.15965702402285017,1.9430624061846355
4.031212484993997,7.8944872454014785,609.5774401434498,601.6829528980484,0.15967746078667278,1.6131502632264345
4.063025210084033,8.036929194487698,609.5774401434498,601.5405109489622,0.15966180894349982,1.283221214163299
4.09483793517407,8.179137778744234,609.5774401434498,601.3983023647056,0.15961237399394412,0.9532624170294759
4.126650660264105,8.32108815110837,609.5774401434498,601.2563519923415,0.15953180338659628,0.623261666856139
4.158463385354142,8.462776417862528,609.5774401434498,601.1146637255873,0.15942302850117268,0.2932074724631503
4.190276110444177,8.604218609969735,609.5774401434498,600.9732215334801,0.1592892072460565,-0.03691087856169259
4.222088835534214,8.745449419775241,609.5774401434498,600.8319907236746,0.1591336683737851,-0.36710326612432875
4.25390156062425,8.886520742408266,609.5774401434498,600.6909194010416,0.1589598584206809,-0.6973786944671323
4.285714285714286,9.02750006049007,609.5774401434498,600.5499400829598,0.15877129197267859,-1.0277452588866627
4.317527010804321,9.168468708852629,609.5774401434498,600.4089714345972,0.15857150576026138,-1.3582101216090698
4.3493397358943575,9.309520053171013,609.5774401434498,600.2679200902788,0.15836401689983867,-1.6887794961241638
4.381152460984394,9.450757613022006,609.5774401434498,600.1266825304278,0.15815228543382168,-2.019458639319289
4.4129651860744294,9.592293156150504,609.5774401434498,599.9851469872993,0.15793968118061785,-2.3502518508098524
4.444777911164466,9.734244786891509,609.5774401434498,599.8431953565583,0.15772945479085576,-2.6811624789270057
4.476590636254501,9.876735047953503,609.5774401434498,599.7007050954963,0.15752471281735056,-3.0121929328898025
4.508403361344538,10.019889051252903,609.5774401434498,599.557551092197,0.15732839654208805,2.9398406064258733
4.540216086434573,10.163832650324366,609.5774401434498,599.4136074931255,0.15714326426180375,2.608566934394501
4.57202881152461,10.30869066406467,609.5774401434498,599.2687494793852,0.15697187671134372,2.2771716372189297
4.603841536614646,10.454585159265548,609.5774401434498,599.1228549841843,0.15681658529812484,1.9456558298512001
4.635654261704682,10.60163379753169,609.5774401434498,598.9758063459182,0.15667952282809905,1.6140214251875444
4.667466986794718,10.74994825078818,609.5774401434498,598.8274918926617,0.15656259642099132,1.2822710916849036
4.699279711884754,10.899632688605834,609.5774401434498,598.677807454844,0.15646748233720376,0.9504082068022605
4.73109243697479,11.050782339990747,609.5774401434498,598.5266578034591,0.1563956224684487,0.6184368065000457
4.7629051620648255,11.203482132054205,609.5774401434498,598.3739580113956,0.15634822227669573,0.2863615310508599
4.794717887154862,11.357805408041827,609.5774401434498,598.219634735408,0.15632624999979997,-0.045812432558789355
4.826530612244897,11.51381272752019,609.5774401434498,598.0636274159297,0.15633043697576268,-0.37807941132268547
4.858343337334934,11.671550752033113,609.5774401434498,597.9058893914167,0.15636127897005936,-0.7104333096562675
4.89015606242497,11.831051220199015,609.5774401434498,597.7463889232508,0.15641903842079663,-1.0428676751983281
4.921968787515006,11.992330016989627,609.5774401434498,597.5851101264602,0.1565037475443261,-1.3753757665498996
4.953781512605042,12.155386342727752,609.5774401434498,597.4220538007221,0.15661521226867195,-1.7079506224927947
4.985594237695078,12.320201988155304,609.5774401434498,597.2572381552945,0.15675301698358576,-2.0405851322007162
5.017406962785114,12.486740722680565,609.5774401434498,597.0906994207693,0.15691653011399673,-2.373272105932488
5.04921968787515,12.654947803582445,609.5774401434498,596.9224923398674,0.1571049105379136,-2.7060043456796308
5.081032412965186,12.824749614477014,609.5774401434498,596.7526905289728,0.15731711488049324,-3.0387747152322144
5.112845138055222,12.996053441698223,609.5774401434498,596.5813867017516,0.15755190572291378,2.911609098054141
5.144657863145258,13.16874739737841,609.5774401434498,596.4086927460714,0.1578078607679437,2.5787832872424583
5.176470588235294,13.342700497884607,609.5774401434498,596.2347396455652,0.15808338300370758,2.245939703758885
5.20828331332533,13.51776290584371,609.5774401434498,596.0596772376061,0.15837671190314132,1.9130845661985099
5.240096038415366,13.693766343258858,609.5774401434498,595.883673800191,0.15868593568918896,1.5802237081511494
5.271908763505402,13.870524682135624,609.5774401434498,595.7069154613142,0.15900900468490264,1.2473625224008968
5.303721488595438,14.047834717610726,609.5774401434498,595.5296054258391,0.1593437457536153,0.914505909072788
5.335534213685474,14.225477126779992,609.5774401434498,595.3519630166699,0.15968787781730218,0.5816582280808146
5.36734693877551,14.403217614281061,609.5774401434498,595.1742225291688,0.16003902842159587,0.2488232561895705
5.399159663865546,14.58080824321155,609.5774401434498,594.9966319002383,0.1603947512939111,-0.08399585103930361
5.430972388955582,14.757988947176273,609.5774401434498,594.8194511962736,0.16075254481731063,-0.4167965921862305
5.4627851140456185,14.934489216219845,609.5774401434498,594.64295092723,0.16110987131756577,-0.7495771476077003
5.494597839135654,15.110029946166264,609.5774401434498,594.4674101972836,0.16146417703507934,-1.0823364016123969
5.52641056422569,15.284325437514099,609.5774401434498,594.2931147059357,0.16181291262756084,-1.4150739590614163
5.558223289315726,15.457085526636774,609.5774401434498,594.1203546168131,0.1621535540244296,-1.7477901563072737
5.590036014405762,15.62801782868803,609.5774401434498,593.9494223147618,0.16248362343076336,-2.0804860664169764
5.621848739495798,15.796830068414238,609.5774401434498,593.7806100750356,0.16280071025799764,-2.4131634986525667
5.653661464585834,15.963232472163895,609.5774401434498,593.614207671286,0.16310249174153807,-2.745824992210159
5.68547418967587,16.12694019183732,609.5774401434498,593.4504999516125,0.1633867529927315,-3.078473804244425
5.717286914765906,16.287675729457987,609.5774401434498,593.2897644139919,0.16365140622505273,2.8720714149471194
5.749099639855943,16.445171329575032,609.5774401434498,593.1322688138748,0.16389450889261054,2.5394354164219473
5.780912364945978,16.599171305886216,609.5774401434498,592.9782688375636,0.16411428048356072,2.2067982243567568
5.812725090036015,16.749434268389678,609.5774401434498,592.8280058750602,0.1643091177220577,1.8741539413467614
5.84453781512605,16.89573521805073,609.5774401434498,592.6817049253991,0.16447760795006788,1.541496094761584
5.8763505402160865,17.03786747744425,609.5774401434498,592.5395726660056,0.16461854048439162,1.20881768087245
5.908163265306122,17.17564442807509,609.5774401434498,592.4017957153748,0.16473091577422908,0.8761112136853412
5.939975990396158,17.308901028054265,609.5774401434498,592.2685391153956,0.16481395221980188,0.5433687781943336
5.971788715486194,17.43749508745782,609.5774401434498,592.139945055992,0.16486709055195392,0.21058208772792275
6.00360144057623,17.56130828290941,609.5774401434498,592.0161318605404,0.16488999571517715,-0.12225745498321806
6.035414165666267,17.680246897603183,609.5774401434498,591.8971932458467,0.16488255624082937,-0.45515869343275955
6.067226890756302,17.79424227799359,609.5774401434498,591.7831978654563,0.16484488114214244,-0.788130650120253
6.099039615846339,17.903251003556875,609.5774401434498,591.674189139893,0.16477729440646408,-1.1211824569922968
6.130852340936374,18.007254771274802,609.5774401434498,591.570185372175,0.16468032720192,-1.4543232840900808
6.162665066026411,18.106260001592545,609.5774401434498,591.4711801418573,0.16455470795387442,-1.787562266990284
