"k","deltaD","D_base","D_harmonic","amplitude","phase"
0.5,20.1962187683139,1450.75810131135,1430.56188254304,16.7773844119385,-0.20206691351197
0.531812725090036,20.1735085716266,1450.75810131135,1430.58459273973,13.966818352299,-0.515016013230725
0.563625450180072,20.1494984325159,1450.75810131135,1430.60860287884,11.7540500791619,-0.828015449008035
0.595438175270108,20.1242073118542,1450.75810131135,1430.6338939995,9.98806538847242,-1.14106865260184
0.627250900360144,20.0976555500545,1450.75810131135,1430.6604457613,8.56142736517876,-1.45417913228211
0.65906362545018,20.0698649170429,1450.75810131135,1430.68823639431,7.39628145506243,-1.76735047801643
0.690876350540216,20.0408586657845,1450.75810131135,1430.71724264557,6.43527064422631,-2.08058636680947
0.722689075630252,20.0106615894911,1450.75810131135,1430.74743972186,5.63550457569639,-2.39389056819147
0.754501800720288,19.9793000826689,1450.75810131135,1430.77880122868,4.96447448042961,-2.7072669498674
0.786314525810324,19.9468022061606,1450.75810131135,1430.81129910519,4.39723515377523,-3.02071948352801
0.81812725090036,19.9131977563418,1450.75810131135,1430.84490355501,3.91442843065861,2.94893305635247
0.849939975990396,19.8785183386553,1450.75810131135,1430.8795829727,3.50087567649603,2.63531585764979
0.881752701080432,19.8427974456736,1450.75810131135,1430.91530386568,3.14456142737387,2.32160990734634
0.913565426170468,19.8060705398802,1450.75810131135,1430.95203077147,2.83589000744208,2.00781075631796
0.945378151260504,19.7683751413877,1450.75810131135,1430.98972616997,2.56713532695451,1.69391381984346
0.97719087635054,19.7297509208104,1450.75810131135,1431.02835039054,2.33202916443002,1.3799143707625
1.00900360144058,19.6902397975239,1450.75810131135,1431.06786151383,2.12544991734512,1.06580753246331
1.04081632653061,19.6498860435661,1450.75810131135,1431.10821526779,1.94318505712916,0.751588271707959
1.07262905162065,19.6087363934275,1450.75810131135,1431.14936491793,1.78174821798167,0.43725139130211
1.10444177671068,19.5668401600033,1450.75810131135,1431.19126115135,1.638237178257,0.122791522622345
1.13625450180072,19.5242493570017,1450.75810131135,1431.23385195435,1.51022272877681,-0.191796881983852
1.16806722689076,19.4810188280921,1450.75810131135,1431.27708248326,1.3956610705975,-0.506519556905941
1.19987995198079,19.4372063831117,1450.75810131135,1431.32089492824,1.29282428189328,-0.821382431060565
1.23169267707083,19.3928729416418,1450.75810131135,1431.36522836971,1.20024476616237,-1.13639163573429
1.26350540216086,19.3480826843065,1450.75810131135,1431.41001862705,1.11667059634152,-1.4515535124418
1.2953181272509,19.3029032121228,1450.75810131135,1431.45519809923,1.04102940788421,-1.76687462075493
1.32713085234094,19.2574057142685,1450.75810131135,1431.50069559708,0.972399042446282,-2.08236174605002
1.35894357743097,19.2116651446374,1450.75810131135,1431.54643616672,0.909983554597349,-2.39802190711058
1.39075630252101,19.1657604075619,1450.75810131135,1431.59234090379,0.853093503820311,-2.71386236351234
1.42256902761104,19.1197745530824,1450.75810131135,1431.63832675827,0.801129689487497,-3.02989062270423
1.45438175270108,19.0737949821694,1450.75810131135,1431.68430632918,0.75356966654228,2.93707086049373
1.48619447779112,19.027913662286,1450.75810131135,1431.73018764907,0.709956518225705,2.62064344901397
1.51800720288115,18.9822273536981,1450.75810131135,1431.77587395765,0.669889469529122,2.30400416111308
1.54981992797119,18.936837846933,1450.75810131135,1431.82126346442,0.633016008683366,1.98714443695284
1.58163265306122,18.891852211771,1450.75810131135,1431.86624909958,0.59902524950445,1.6700554420588
1.61344537815126,18.8473830581704,1450.75810131135,1431.91071825318,0.567642319010841,1.35272806477748
1.6452581032413,18.8035488094829,1450.75810131135,1431.95455250187,0.53862359556867,1.03515291513699
1.67707082833133,18.7604739883157,1450.75810131135,1431.99762732304,0.511752655308962,0.717320325364854
1.70888355342137,18.7182895153576,1450.75810131135,1432.039811796,0.486836810525796,0.39922035234863
1.7406962785114,18.6771330214488,1450.75810131135,1432.0809682899,0.463704144607877,0.0808427823586725
1.77250900360144,18.6371491731311,1450.75810131135,1432.12095213822,0.44220096486214,-0.237822861611477
1.80432172869148,18.5984900118463,1450.75810131135,1432.15961129951,0.422189608193682,-0.556787309493312
1.83613445378151,18.5613153068759,1450.75810131135,1432.19678600448,0.403546545666307,-0.876061530346381
1.86794717887155,18.5257929220315,1450.75810131135,1432.23230838932,0.386160740991735,-1.19565671464147
1.89975990396158,18.4920991959766,1450.75810131135,1432.26600211538,0.369932225385675,-1.51558425210801
1.93157262905162,18.4604193359362,1450.75810131135,1432.29768197542,0.354770857303151,-1.83585570458898
1.96338535414166,18.4309478243892,1450.75810131135,1432.32715348696,0.340595240573206,-2.15648277330896
1.99519807923169,18.4038888381322,1450.75810131135,1432.35421247322,0.327331778597512,-2.47747725992591
2.02701080432173,18.3794566788924,1450.75810131135,1432.37864463246,0.314913845715689,-2.79885102070975
2.05882352941176,18.3578762143854,1450.75810131135,1432.40022509697,0.303281059702697,-3.12061591317148
2.0906362545018,18.3393833284017,1450.75810131135,1432.41871798295,0.292378641752729,2.84040157272023
2.12244897959184,18.324225378137,1450.75810131135,1432.43387593322,0.282156852303743,2.51781915633157
2.15426170468187,18.3126616565539,1450.75810131135,1432.4454396548,0.272570492734646,2.19481068950404
2.18607442977191,18.3049638570544,1450.75810131135,1432.4531374543,0.263578464378465,1.87136501804121
2.21788715486194,18.3014165371715,1450.75810131135,1432.45668477418,0.255143377484491,1.54747138973988
2.24969987995198,18.3023175773201,1450.75810131135,1432.45578373403,0.247231203767592,1.22311956627012
2.28151260504202,18.3079786298717,1450.75810131135,1432.45012268148,0.239810967033598,0.898299946300136
2.31332533013205,18.3187255529419,1450.75810131135,1432.43937575841,0.232854467091516,0.573003699868296
2.34513805522209,18.3348988222635,1450.75810131135,1432.42320248909,0.22633603277645,0.247222913735907
2.37695078031213,18.3568539133769,1450.75810131135,1432.40124739798,0.220232300429531,-0.0790492528730826
2.40876350540216,18.3849616450432,1450.75810131135,1432.37313966631,0.214522014626803,-0.405818403128258
2.4405762304922,18.4196084733201,1450.75810131135,1432.33849283803,0.209185848330328,-0.733088729478658
2.47238895558223,18.4611967240601,1450.75810131135,1432.29690458729,0.20420623996208,-1.06086283451207
2.50420168067227,18.5101447497032,1450.75810131135,1432.24795656165,0.199567245182937,-1.38914154829351
2.5360144057623,18.5668869941508,1450.75810131135,1432.1912143172,0.195254401403085,-1.71792374528926
2.56782713085234,18.6318739471587,1450.75810131135,1432.12622736419,0.191254603262202,-2.04720616460586
2.59963985594238,18.7055719671018,1450.75810131135,1432.05252934425,0.187555987503728,-2.37698323789168
2.63145258103241,18.7884629481284,1450.75810131135,1431.96963836322,0.184147825831467,-2.70724692983261
2.66326530612245,18.881043804636,1450.75810131135,1431.87705750672,0.181020424482713,-3.03798659668479
2.69507803121249,18.9838257426541,1450.75810131135,1431.7742755687,0.178165029382827,2.91399643849681
2.72689075630252,19.0973332841731,1450.75810131135,1431.66076802718,0.175573735864327,2.58234774478258
2.75870348139256,19.2221030067246,1450.75810131135,1431.53599830463,0.173239402040632,2.2502716780375
2.79051620648259,19.3586819566458,1450.75810131135,1431.39941935471,0.171155565021977,1.9177901618625
2.82232893157263,19.5076256905952,1450.75810131135,1431.25047562076,0.169316359249312,1.58492795712543
2.85414165666266,19.6694958960702,1450.75810131135,1431.08860541528,0.167716436301723,1.25171257243576
2.8859543817527,19.8448575381565,1450.75810131135,1430.9132437732,0.166350885604196,0.91817411929231
2.91776710684274,20.0342754766939,1450.75810131135,1430.72382583466,0.165215155525652,0.584345109861367
2.94957983193277,20.2383104957619,1450.75810131135,1430.51979081559,0.164304974412697,0.250260197001274
2.98139255702281,20.4575146862603,1450.75810131135,1430.30058662509,0.163616271153512,-0.084044142007928
3.01320528211285,20.6924261228064,1450.75810131135,1430.06567518855,0.163145094910851,-0.418529974630163
3.04501800720288,20.9435627787752,1450.75810131135,1429.81453853258,0.162887533706272,-0.753158329800791
3.07683073229292,21.2114156286932,1450.75810131135,1429.54668568266,0.162839631584327,-1.08788965506726
3.10864345738295,21.4964408961825,1450.75810131135,1429.26166041517,0.162997304141476,-1.42268430541318
3.14045618247299,21.7990514190765,1450.75810131135,1428.95904989228,0.163356252278027,-1.75750305379051
3.17226890756303,22.1196071222084,1450.75810131135,1428.63849418914,0.163911874131608,-2.0923076125584
3.20408163265306,22.4584046137566,1450.75810131135,1428.2996966976,0.164659175288313,-2.42706115467333
3.2358943577431,22.8156659539798,1450.75810131135,1427.94243535737,0.165592677553692,-2.76172882361306
3.26770708283313,23.1915266867522,1450.75810131135,1427.5665746246,0.166706326811357,-3.09627822162815
3.29951980792317,23.5860232753485,1450.75810131135,1427.172078036,0.167993400811692,2.85250544023426
3.33133253301321,23.9990801450265,1450.75810131135,1426.75902116633,0.169446418124091,2.5182776952657
3.36314525810324,24.4304966061979,1450.75810131135,1426.32760470516,0.171057049955686,2.18424629149545
3.39495798319328,24.8799340126805,1450.75810131135,1425.87816729867,0.172816037083964,1.85042964046195
3.42677070828331,25.3469035981614,1450.75810131135,1425.41119771319,0.174713114757372,1.51684185504252
3.45858343337335,25.8307555275928,1450.75810131135,1424.92734578376,0.17673694906356,1.18349253466093
3.49039615846339,26.3306697944927,1450.75810131135,1424.42743151686,0.178875088913233,0.850386605055521
3.52220888355342,26.8456496838148,1450.75810131135,1423.91245162754,0.181113938387716,0.517524211486252
3.55402160864346,27.3745185952785,1450.75810131135,1423.38358271607,0.183438754685306,0.184900663441823
3.58583433373349,27.9159210740722,1450.75810131135,1422.84218023728,0.185833677196597,-0.147493571589577
3.61764705882353,28.4683289136244,1450.75810131135,1422.28977239773,0.188281793254473,-0.479672827913351
3.64945978391357,29.0300531669184,1450.75810131135,1421.72804814443,0.190765245750338,-0.811656157532534
3.6812725090036,29.5992628173517,1450.75810131135,1421.158838494,0.19326538700191,-1.14346720440745
3.71308523409364,30.1740107080177,1450.75810131135,1420.58409060334,0.19576298193862,-1.47513403885085
3.74489795918367,30.7522671038407,1450.75810131135,1420.00583420751,0.198238461813444,-1.80668895327178
3.77671068427371,31.3319609641187,1450.75810131135,1419.42614034723,0.200672227281563,-2.13816821986874
3.80852340936375,31.9110286408425,1450.75810131135,1418.84707267051,0.203044996897254,-2.46961181026189
3.84033613445378,32.4874693062779,1450.75810131135,1418.27063200508,0.205338194030562,-2.80106307647462
3.87214885954382,33.059405975913,1450.75810131135,1417.69869533544,0.20753436212041,-3.13256839214586
3.90396158463385,33.625150561807,1450.75810131135,1417.13295074955,0.209617595335577,2.81900855480212
3.93577430972389,34.1832710036651,1450.75810131135,1416.57483030769,0.211573969405849,2.48724597698947
3.96758703481393,34.7326582188434,1450.75810131135,1416.02544309251,0.213391955891889,2.15527632000846
3.99939975990396,35.2725904230681,1450.75810131135,1415.48551088829,0.21506280270471,1.82304557162799
4.031212484994,35.8027923274988,1450.75810131135,1414.95530898385,0.216580864386927,1.49049915850286
4.06302521008403,36.323486828958,1450.75810131135,1414.4346144824,0.21794386752657,1.15758259048812
4.09483793517407,36.8354370771904,1450.75810131135,1413.92266423416,0.219153099555699,0.824242162822782
4.12665066026411,37.3399772080836,1450.75810131135,1413.41812410327,0.220213512835204,0.490425718793127
4.15846338535414,37.8390305425723,1450.75810131135,1412.91907076878,0.221133740003434,0.156083474445983
4.19027611044418,38.3351146241514,1450.75810131135,1412.4229866872,0.221926020689573,-0.178831094893336
4.22208883553421,38.8313330549518,1450.75810131135,1411.9267682564,0.222606043498625,-0.514360309345888
4.25390156062425,39.3313546429167,1450.75810131135,1411.42674666844,0.223192710362487,-0.850541287459774
4.28571428571429,39.8393808486167,1450.75810131135,1410.91872046274,0.223707832719378,-1.18740490969352
4.31752701080432,40.360102887794,1450.75810131135,1410.39799842356,0.224175770447621,-1.5249747611301
4.34933973589436,40.8986500858098,1450.75810131135,1409.85945122554,0.224623025069822,-1.86326607968591
4.38115246098439,41.4605311871592,1450.75810131135,1409.29757012419,0.225077798586703,-2.20228474425792
4.41296518607443,42.0515703037718,1450.75810131135,1408.70653100758,0.225569528588387,-2.54202634541425
4.44477791116447,42.6778390564018,1450.75810131135,1408.08026225495,0.226128409246132,-2.8824753884646
4.4765906362545,43.3455862472631,1450.75810131135,1407.41251506409,0.226784906623866,3.05958062325005
4.50840336134454,44.0611661259618,1450.75810131135,1406.69693518539,0.227569275643334,2.7178103248523
4.54021608643457,44.8309660021118,1450.75810131135,1405.92713530924,0.22851108510665,2.37545039954977
4.57202881152461,45.661333642644,1450.75810131135,1405.09676766871,0.229638756472853,2.03256407139584
4.60384153661465,46.5585045923995,1450.75810131135,1404.19959671895,0.230979121578972,1.68922575626107
4.63565426170468,47.5285292920844,1450.75810131135,1403.22957201927,0.232557004113271,1.34552001461063
4.66746698679472,48.5771996528285,1450.75810131135,1402.18090165852,0.234394829277502,1.00154012361081
4.69927971188475,49.7099745927446,1450.75810131135,1401.04812671861,0.236512265600381,0.657386304949819
4.73109243697479,50.9319039561053,1450.75810131135,1399.82619735525,0.23892590219619,0.313163670488867
4.76290516206483,52.2475502258937,1450.75810131135,1398.51055108546,0.241648963862353,-0.0310200297234139
4.79471788715486,53.6609075095828,1450.75810131135,1397.09719380177,0.244691065307426,-0.375056756285418
4.8265306122449,55.1753174289649,1450.75810131135,1395.58278388239,0.248058004595365,-0.718840517429572
4.85834333733493,56.7933817795197,1450.75810131135,1393.96471953183,0.251751594738243,-1.06226958701092
4.89015606242497,58.5168721439213,1450.75810131135,1392.24122916743,0.255769531453941,-1.405248507155
4.92196878751501,60.3466370469882,1450.75810131135,1390.41146426436,0.260105294611134,-1.7476897978474
4.95378151260504,62.2825077223026,1450.75810131135,1388.47559358905,0.264748080959402,-2.08951531975772
4.98559423769508,64.3232041167705,1450.75810131135,1386.43489719458,0.269682766472728,-2.43065726303168
5.01740696278511,66.4662433760702,1450.75810131135,1384.29185793528,0.274889898026109,-2.77105876068023
5.04921968787515,68.7078537114953,1450.75810131135,1382.05024759986,0.280345716098329,-3.11067414799919
5.08103241296519,71.0428972183408,1450.75810131135,1379.71520409301,0.286022212590214,2.8337163998155
5.11284513805522,73.46480585787,1450.75810131135,1377.29329545348,0.291887230438962,2.49576595735811
5.14465786314526,75.9655353774604,1450.75810131135,1374.79256593389,0.297904614213998,2.15867321615031
5.17647058823529,78.5355423631099,1450.75810131135,1372.22255894824,0.304034422979277,1.82244192734938
5.20828331332533,81.1637898213369,1450.75810131135,1369.59431149002,0.310233218062204,1.48706697311558
5.24009603841537,83.8377865939628,1450.75810131135,1366.92031471739,0.316454438642202,1.15253517584559
5.2719087635054,86.5436654404239,1450.75810131135,1364.21443587093,0.322648876950765,0.818826113614639
5.30372148859544,89.2663037105795,1450.75810131135,1361.49179760077,0.328765262110171,0.485912912741487
5.33553421368547,91.9894891324871,1450.75810131135,1358.76861217887,0.334750957085795,0.15376299808614
5.36734693877551,94.696131348911,1450.75810131135,1356.06196996244,0.340552766901045,-0.177661209396351
5.39915966386555,97.3685175000448,1450.75810131135,1353.38958381131,0.346117848385525,-0.508401650707056
5.43097238895558,99.9886074776755,1450.75810131135,1350.76949383368,0.35139470276457,-0.838504039343604
5.46278511404562,102.538361643798,1450.75810131135,1348.21973966755,0.356334223076833,-1.16801731705048
5.49459783913565,105.000091050263,1450.75810131135,1345.75801026109,0.360890759675902,-1.49699314518612
5.52641056422569,107.356817792102,1450.75810131135,1343.40128351925,0.365023160019845,-1.82548542155099
5.55822328931573,109.592631361686,1450.75810131135,1341.16546994967,0.368695734665213,-2.15354981348952
5.59003601440576,111.693025998818,1450.75810131135,1339.06507531254,0.371879100767259,-2.48124330024707
5.6218487394958,113.64520423398,1450.75810131135,1337.11289707737,0.374550857991127,-2.80862372051121
5.65366146458583,115.438333167506,1450.75810131135,1335.31976814385,0.376696059595379,-3.13574932432557
5.68547418967587,117.063742451845,1450.75810131135,1333.69435885951,0.378307453014362,2.82050697551491
5.71728691476591,118.515056247973,1450.75810131135,1332.24304506338,0.379385478450407,2.49371680469176
5.74909963985594,119.788255299812,1450.75810131135,1330.96984601154,0.379938029302962,2.16700858243455
5.78091236494598,120.881669333276,1450.75810131135,1329.87643197808,0.37997999305409,1.84032667974548
5.81272509003601,121.795903848391,1450.75810131135,1328.96219746296,0.379532603941926,1.5136170817747
5.84453781512605,122.533708686276,1450.75810131135,1328.22439262508,0.378622648170241,1.18682770585744
5.87635054021609,123.099798259791,1450.75810131135,1327.65830305156,0.377281567815618,0.85990867889457
5.90816326530612,123.500634895187,1450.75810131135,1327.25746641617,0.375544510863635,0.532812572813074
5.93997599039616,123.744187321631,1450.75810131135,1327.01391398972,0.37344937231205,0.20549459908765
5.97178871548619,123.839676051427,1450.75810131135,1326.91842525993,0.371035865792478,-0.122087234707669
6.00360144057623,123.79731638012,1450.75810131135,1326.96078493123,0.368344657668874,-0.449972001813928
6.03541416566627,123.62806820896,1450.75810131135,1327.13003310239,0.365416587099021,-0.778195761191384
6.0672268907563,123.343400069232,1450.75810131135,1327.41470124212,0.362291987019089,-1.10679148455923
6.09903961584634,122.955072807265,1450.75810131135,1327.80302850409,0.359010113159472,-1.43578899989581
6.13085234093637,122.474946533707,1450.75810131135,1328.28315477765,0.355608681513339,-1.76521494637945
6.16266506602641,121.91481276928,1450.75810131135,1328.84328854207,0.352123509414443,-2.09509273677262
6.19447779111645,121.286252305023,1450.75810131135,1329.47184900633,0.348588251596223,-2.42544252452364
6.22629051620648,120.600518171235,1450.75810131135,1330.15758314012,0.345034220210269,-2.75628117426748
6.25810324129652,119.868442277019,1450.75810131135,1330.88965903433,0.341490276594579,-3.08762223584411
6.28991596638655,119.100363720077,1450.75810131135,1331.65773759128,0.337982782369654,2.86370938384919
6.32172869147659,118.306076438723,1450.75810131135,1332.45202487263,0.334535597962547,2.53133620536027
6.35354141656663,117.494793742956,1450.75810131135,1333.2633075684,0.331170117690691,2.1984400214638
6.38535414165666,116.675127275692,1450.75810131135,1334.08297403566,0.327905331883828,1.86502065408548
6.4171668667467,115.855078078514,1450.75810131135,1334.90302323284,0.32475790802574,1.53108122604512
6.44897959183673,115.04203763302,1450.75810131135,1335.71606367833,0.321742284435976,1.1966280993897
6.48079231692677,114.242796989293,1450.75810131135,1336.51530432206,0.318870771496715,0.861670782573881
6.51260504201681,113.463562353558,1450.75810131135,1337.29453895779,0.316153656800077,0.52622180216544
6.54441776710684,112.709975769522,1450.75810131135,1338.04812554183,0.313599311806989,0.190296535717463
6.57623049219688,111.98713977895,1450.75810131135,1338.7709615324,0.311214298646914,-0.146086996252194
6.60804321728691,111.299645177429,1450.75810131135,1339.45845613392,0.30900347653703,-0.482908379649579
