"k","deltaD","D_base","D_harmonic","amplitude","phase"
0.5,18.717957683676,698.416230049805,679.698272366129,30.302821456051,-0.212667340175653
0.531812725090036,18.6946532320044,698.416230049805,679.7215768178,25.2438255573083,-0.52635413288387
0.563625450180072,18.6700639567159,698.416230049805,679.746166093089,21.2600041278038,-0.840102725818976
0.595438175270108,18.6442185367405,698.416230049805,679.772011513064,18.0798455249389,-1.1539171612387
0.627250900360144,18.6171477203247,698.416230049805,679.79908232948,15.5101722633474,-1.46780154113424
0.65906362545018,18.5888843965231,698.416230049805,679.827345653282,13.4109866367967,-1.78176003062696
0.690876350540216,18.5594636714015,698.416230049805,679.856766378403,11.6791410802811,-2.09579686131487
0.722689075630252,18.528922949208,698.416230049805,679.887307100597,10.2374974251569,-2.40991633454189
0.754501800720288,18.4973020185303,698.416230049805,679.918928031275,9.02758351844694,-2.72412282460533
0.786314525810324,18.4646431436797,698.416230049805,679.951586906125,8.00452727911959,-3.0384207818833
0.81812725090036,18.4309911613931,698.416230049805,679.985238888412,7.13350334885786,2.93037057129506
0.849939975990396,18.3963935830053,698.416230049805,680.019836466799,6.38720258621847,2.61587600897936
0.881752701080432,18.3609007022849,698.416230049805,680.05532934752,5.74400470260787,2.30127614183522
0.913565426170468,18.324565709048,698.416230049805,680.091664340757,5.18664162930387,1.98656618571858
0.945378151260504,18.2874448087258,698.416230049805,680.128785241079,4.70120817919311,1.67174126629436
0.97719087635054,18.249597348031,698.416230049805,680.166632701774,4.27642168096173,1.35679641665572
1.00900360144058,18.2110859469138,698.416230049805,680.205144102891,3.90306224776322,1.04172657514091
1.04081632653061,18.1719766369139,698.416230049805,680.244253412891,3.57354556587278,0.726526583383891
1.07262905162065,18.1323390060826,698.416230049805,680.283891043722,3.28159391922661,0.411191184628135
1.10444177671068,18.0922463506218,698.416230049805,680.323983699183,3.02198074531911,0.0957150223416632
1.13625450180072,18.0517758333571,698.416230049805,680.364454216448,2.79033073336405,-0.219907360826338
1.16806722689076,18.0110086491795,698.416230049805,680.405221400625,2.58296223626812,-0.535681523702906
1.19987995198079,17.970030197552,698.416230049805,680.446199852253,2.39676217849104,-0.851613126814276
1.23169267707083,17.9289302621791,698.416230049805,680.487299787626,2.22908610952463,-1.16770793211946
1.26350540216086,17.8878031979037,698.416230049805,680.528426851901,2.07767785484433,-1.48397180219711
1.2953181272509,17.846748124868,698.416230049805,680.569481924937,1.9406045439042,-1.80041069882095
1.32713085234094,17.80586912995,698.416230049805,680.610360919855,1.81620378114375,-2.11703068085508
1.35894357743097,17.7652754754557,698.416230049805,680.650954574349,1.70304046451424,-2.4338379013935
1.39075630252101,17.7250818149864,698.416230049805,680.691148234818,1.59987131323914,-2.75083860406373
1.42256902761104,17.6854084163622,698.416230049805,680.730821633443,1.50561558979929,-3.06803911840681
1.45438175270108,17.646381391434,698.416230049805,680.769848658371,1.41933082494643,2.89773945293777
1.48619447779112,17.6081329325287,698.416230049805,680.808097117276,1.34019260377403,2.5801200122646
1.51800720288115,17.570801555206,698.416230049805,680.845428494599,1.2674776639437,2.26228131785008
1.54981992797119,17.5345323469326,698.416230049805,680.881697702872,1.20054970755833,1.9442167645343
1.58163265306122,17.4994772211436,698.416230049805,680.916752828661,1.13884744599306,1.62591970164629
1.61344537815126,17.4657951760937,698.416230049805,680.950434873711,1.08187448979998,1.3073834453147
1.6452581032413,17.4336525577379,698.416230049805,680.982577492067,1.02919076925718,0.988601292467384
1.67707082833133,17.4032233257423,698.416230049805,681.013006724063,0.980405229573476,0.669566536645513
1.70888355342137,17.3746893215973,698.416230049805,681.041540728207,0.935169591463602,0.350272485759428
1.7406962785114,17.3482405375682,698.416230049805,681.067989512237,0.893173005305774,0.0307124819123077
1.77250900360144,17.3240753850702,698.416230049805,681.092154664735,0.854137457325567,-0.289120076584948
1.80432172869148,17.3024009607835,698.416230049805,681.113829089021,0.817813810729251,-0.609231710889913
1.83613445378151,17.2834333086108,698.416230049805,681.132796741194,0.783978384608036,-0.929628834886997
1.86794717887155,17.2673976752727,698.416230049805,681.148832374532,0.752429989669725,-1.25031772593082
1.89975990396158,17.254528757038,698.416230049805,681.161701292767,0.722987353154339,-1.5713044929944
1.93157262905162,17.2450709347539,698.416230049805,681.171159115051,0.695486876220935,-1.89259504216282
1.96338535414166,17.2392784939537,698.416230049805,681.176951555851,0.669780676106471,-2.21419503943929
1.99519807923169,17.2374158264261,698.416230049805,681.178814223379,0.64573487281902,-2.53610987086291
2.02701080432173,17.239757609169,698.416230049805,681.176472440636,0.6232280863201,-2.85834459997612
2.05882352941176,17.246588956194,698.416230049805,681.169641093611,0.602150115307866,3.10228138445478
2.0906362545018,17.2582055380951,698.416230049805,681.15802451171,0.58240077301951,2.77939318725251
2.12244897959184,17.2749136637673,698.416230049805,681.141316386037,0.563888859080038,2.45617229967336
2.15426170468187,17.2970303180429,698.416230049805,681.119199731762,0.546531249453711,2.13261542242861
2.18607442977191,17.3248831483954,698.416230049805,681.091346901409,0.530252089108405,1.8087198262392
2.21788715486194,17.3588103931903,698.416230049805,681.057419656614,0.514982074158187,1.48448340642731
2.24969987995198,17.3991607432737,698.416230049805,681.017069306531,0.500657812075725,1.15990473821903
2.28151260504202,17.4462931279853,698.416230049805,680.969936921819,0.487221250116523,0.834983132160506
2.31332533013205,17.5005764159501,698.416230049805,680.915653633855,0.474619163416947,0.509718688956463
2.34513805522209,17.5623890203052,698.416230049805,680.8538410295,0.462802695355415,0.184112352943931
2.37695078031213,17.6321183973043,698.416230049805,680.7841116525,0.451726943731888,-0.14183403667864
2.40876350540216,17.7101604266022,698.416230049805,680.706069623203,0.441350587149246,-0.468117697834712
2.4405762304922,17.7969186609197,698.416230049805,680.619311388885,0.431635546695973,-0.794734861813041
2.47238895558223,17.8928034323174,698.416230049805,680.523426617487,0.422546678647474,-1.1216807348847
2.50420168067227,17.9982308019387,698.416230049805,680.417999247866,0.414051494441489,-1.44894946645781
2.5360144057623,18.113621339927,698.416230049805,680.302608709878,0.406119904651966,-1.77653412496167
2.56782713085234,18.2393987222858,698.416230049805,680.176831327519,0.398723984098473,-2.10442668265512
2.59963985594238,18.3759881318196,698.416230049805,680.040241917985,0.391837755592345,-2.43261801052675
2.63145258103241,18.5238144510371,698.416230049805,679.892415598768,0.385436990145672,-2.76109788439414
2.66326530612245,18.6833002360827,698.416230049805,679.732929813722,0.379499021760646,-3.08985500321315
2.69507803121249,18.8548634624976,698.416230049805,679.561366587307,0.374002575181866,2.86430828670537
2.72689075630252,19.0389150359725,698.416230049805,679.377315013832,0.368927605237131,2.53503471778913
2.75870348139256,19.2358560643546,698.416230049805,679.18037398545,0.36425514661799,2.20552388480596
2.79051620648259,19.4460748911087,698.416230049805,678.970155158696,0.359967173164185,1.87579094212917
2.82232893157263,19.6699438953057,698.416230049805,678.746286154499,0.356046465918522,1.54585182238073
2.85414165666266,19.9078160691096,698.416230049805,678.508413980695,0.352476489414459,1.21572313369193
2.8859543817527,20.1600213907346,698.416230049805,678.25620865907,0.349241275849274,0.8854220433918
2.91776710684274,20.4268630189858,698.416230049805,677.989367030819,0.346325316983164,0.554966149074882
2.94957983193277,20.708613344779,698.416230049805,677.707616705026,0.343713463789168,0.22437333831991
2.98139255702281,21.0055099454175,698.416230049805,677.410720104387,0.341390834060572,-0.106338361359983
3.01320528211285,21.3177514987434,698.416230049805,677.098478551061,0.33934272835985,-0.437150940466506
3.04501800720288,21.6454937263709,698.416230049805,676.770736323434,0.33755455486295,-0.768046571235943
3.07683073229292,21.9888454477215,698.416230049805,676.427384602083,0.336011763810739,-1.09900777477738
3.10864345738295,22.347864839057,698.416230049805,676.068365210748,0.334699792418843,-1.43001758909683
3.14045618247299,22.7225560035719,698.416230049805,675.693674046233,0.333604021209572,-1.76105973534176
3.17226890756303,23.1128659691238,698.416230049805,675.303364080681,0.332709742804674,-2.09211877951771
3.20408163265306,23.5186822384943,698.416230049805,674.89754781131,0.332002144243317,-2.42318028689879
3.2358943577431,23.939831022235,698.416230049805,674.47639902757,0.33146630385246,-2.75423096637636
3.26770708283313,24.3760762850848,698.416230049805,674.04015376472,0.331087203583281,-3.08525880206721
3.29951980792317,24.8271197326941,698.416230049805,673.589110317111,0.330849757525304,2.86693213754747
3.33133253301321,25.2926018548989,698.416230049805,673.123628194906,0.330738857009335,2.53598037223872
3.36314525810324,25.7721041244176,698.416230049805,672.644125925387,0.330739432306806,2.20507877422048
3.39495798319328,26.2651524250333,698.416230049805,672.151077624771,0.330836530428771,1.87423328214997
3.42677070828331,26.7712217511527,698.416230049805,671.645008298652,0.331015407933869,1.54344817410426
3.45858343337335,27.289742181581,698.416230049805,671.126487868224,0.331261636993174,1.2127260575143
3.49039615846339,27.8201060856027,698.416230049805,670.596123964202,0.331561222264441,0.88206788382362
3.52220888355342,28.3616764708522,698.416230049805,670.054553578953,0.331900725443026,0.551472987935939
3.55402160864346,28.9137963324024,698.416230049805,669.502433717402,0.332267393734413,0.220939151949034
3.58583433373349,29.475798813977,698.416230049805,668.940431235828,0.33264928799108,-0.109537307922244
3.61764705882353,30.0470179484257,698.416230049805,668.369212101379,0.333035405930193,-0.439961432932867
3.64945978391357,30.6267997088177,698.416230049805,667.789430340987,0.333415795746602,-0.770339494186598
3.6812725090036,31.2145130767071,698.416230049805,667.201716973098,0.333781655590825,-1.10067884862249
3.71308523409364,31.8095608225431,698.416230049805,666.606669227262,0.334125414806872,-1.43098778187806
3.74489795918367,32.4113896962774,698.416230049805,666.004840353527,0.334440793507743,-1.76127534164114
3.77671068427371,33.0194997441546,698.416230049805,665.39673030565,0.334722837969607,-2.0915511653107
3.80852340936375,33.6334524995541,698.416230049805,664.782777550251,0.334967930388943,-2.42182530584492
3.84033613445378,34.2528778394458,698.416230049805,664.163352210359,0.335173772693008,-2.75210805957643
3.87214885954382,34.8774793505287,698.416230049805,663.538750699276,0.335339345237649,-3.08240979952715
3.90396158463385,35.5070381068051,698.416230049805,662.909191943,0.335464842283802,2.87044448980355
3.93577430972389,36.1414148192711,698.416230049805,662.274815230534,0.335551587041775,2.54007413042913
3.96758703481393,36.7805503749446,698.416230049805,661.63567967486,0.335601929756126,2.20965472722072
3.99939975990396,37.4244648332582,698.416230049805,660.991765216547,0.335619132741845,1.87917705748221
4.031212484994,38.0732549905442,698.416230049805,660.342975059261,0.335607246467436,1.54863248049936
4.06302521008403,38.7270906562682,698.416230049805,659.689139393537,0.335570980727585,1.21801302358256
4.09483793517407,39.3862098071938,698.416230049805,659.030020242611,0.335515574690617,0.887311451867275
4.12665066026411,40.0509127979855,698.416230049805,658.365317251819,0.335446669189178,0.556521322366025
4.15846338535414,40.7215558096921,698.416230049805,657.694674240113,0.335370184097325,0.225637023089216
4.19027611044418,41.3985437125602,698.416230049805,657.017686337245,0.335292203054417,-0.105346201712017
4.22208883553421,42.0823225082917,698.416230049805,656.333907541513,0.335218867201373,-0.436432238975652
4.25390156062425,42.7733715010191,698.416230049805,655.642858548786,0.335156279026055,-0.767624105645932
4.28571428571429,43.4721953276081,698.416230049805,654.944034722197,0.335110416899567,-1.09892395757478
4.31752701080432,44.1793159579302,698.416230049805,654.236914091875,0.335087060442724,-1.43033310723348
4.34933973589436,44.8952647558441,698.416230049805,653.520965293961,0.335091726500884,-1.76185204902422
4.38115246098439,45.6205746727039,698.416230049805,652.795655377101,0.335129615227612,-2.09348049106723
4.41296518607443,46.3557726280829,698.416230049805,652.060457421722,0.335205565579244,-2.42521739243648
4.44477791116447,47.1013721175008,698.416230049805,651.314857932304,0.335324019395471,-2.75706100491794
4.4765906362545,47.8578660745181,698.416230049805,650.558363975287,0.335488993175112,-3.08900891846238
4.50840336134454,48.6257200047125,698.416230049805,649.790510045092,0.335704056640542,2.86212719758349
4.54021608643457,49.4053654016709,698.416230049805,649.010864648134,0.33597231720724,2.52998031504562
4.57202881152461,50.1971934500772,698.416230049805,648.219036599728,0.336296409526717,2.19773983756867
4.60384153661465,51.0015490180172,698.416230049805,647.414681031788,0.336678489342324,1.86541031827159
4.63565426170468,51.8187249394807,698.416230049805,646.597505110324,0.337120230980716,1.53299671257883
4.66746698679472,52.648956588454,698.416230049805,645.767273461351,0.337622827890634,1.20050432357934
4.69927971188475,53.4924167476781,698.416230049805,644.923813302127,0.338186995730636,0.86793874748607
4.73109243697479,54.3492107778302,698.416230049805,644.067019271975,0.33881297759456,0.535305819557134
4.76290516206483,55.2193720963302,698.416230049805,643.196857953475,0.339500551045673,0.202611560811651
4.79471788715486,56.1028579789468,698.416230049805,642.313372070858,0.340249036705739,-0.130137874154599
4.8265306122449,56.999545701647,698.416230049805,641.416684348158,0.341057308212767,-0.462936247974797
4.85834333733493,57.9092290445639,698.416230049805,640.507001005241,0.341923803420598,-0.795777289687344
4.89015606242497,58.8316151843019,698.416230049805,639.584614865503,0.342846536764552,-1.12865474206053
4.92196878751501,59.7663220049623,698.416230049805,638.649908044843,0.343823112760466,-1.46156240687461
4.95378151260504,60.7128758620632,698.416230049805,637.703354187742,0.344850740639812,-1.79449418800237
4.98559423769508,61.6707098368311,698.416230049805,636.745520212974,0.345926250151826,-2.12744413216322
5.01740696278511,62.6391625210117,698.416230049805,635.777067528793,0.347046108585101,-2.46040646726103
5.04921968787515,63.6174773742653,698.416230049805,634.79875267554,0.348206439076467,-2.79337563825063
5.08103241296519,64.6048026972649,698.416230049805,633.81142735254,0.349403040284646,-3.12634634051306
5.11284513805522,65.6001922636813,698.416230049805,632.816037786124,0.350631407510626,2.82387175642742
5.14465786314526,66.6026066531966,698.416230049805,631.813623396608,0.351886755346141,2.49091275172341
5.17647058823529,67.6109153254854,698.416230049805,630.805314724319,0.353164041926555,2.15796633018558
5.20828331332533,68.6238994715916,698.416230049805,629.792330578213,0.354457994854898,1.8250365097408
5.24009603841537,69.6402556742678,698.416230049805,628.775974375537,0.355763138849845,1.49212692695266
5.2719087635054,70.6586004025801,698.416230049805,627.757629647225,0.357073825152375,1.15924081740868
5.30372148859544,71.6774753583198,698.416230049805,626.738754691485,0.358384262703296,0.826380998032748
5.33553421368547,72.6953536825855,698.416230049805,625.720876367219,0.35968855107715,0.493549851207817
5.36734693877551,73.7106470201968,698.416230049805,624.705583029608,0.360980715126781,0.160749310606336
5.39915966386555,74.7217134275591,698.416230049805,623.694516622246,0.362254741257277,-0.172019151351813
5.43097238895558,75.7268660962188,698.416230049805,622.689363953586,0.363504615208067,-0.504754534465918
5.46278511404562,76.7243828498239,698.416230049805,621.691847199981,0.364724361177713,-0.837456320160806
5.49459783913565,77.7125163567572,698.416230049805,620.703713693048,0.365908082077982,-1.17012447930703
5.52641056422569,78.6895049845704,698.416230049805,619.726725065234,0.367050000652415,-1.5027594783823
5.55822328931573,79.6535842059001,698.416230049805,618.762645843905,0.368144501141061,-1.83536228385286
5.59003601440576,80.6029984491717,698.416230049805,617.813231600633,0.369186171118244,-2.16793436460461
5.6218487394958,81.5360132715426,698.416230049805,616.880216778262,0.370169843076094,-2.50047769220661
5.65366146458583,82.4509277168061,698.416230049805,615.965302332999,0.371090635274935,-2.83299473874801
5.68547418967587,83.3460867078152,698.416230049805,615.07014334199,0.371943991334977,3.11769683522484
5.71728691476591,84.2198933120973,698.416230049805,614.196336737707,0.372725718004659,2.78522295991057
5.74909963985594,85.0708207112331,698.416230049805,613.345409338572,0.373432020512417,2.45276501061582
5.78091236494598,85.8974236998389,698.416230049805,612.518806349966,0.374059534893241,2.1203185940104
5.81272509003601,86.6983495391252,698.416230049805,611.71788051068,0.374605356682023,1.7878788742693
5.84453781512605,87.4723479933921,698.416230049805,610.943882056413,0.375067065384483,1.45544059628552
5.87635054021609,88.218280385726,698.416230049805,610.197949664079,0.375442744175105,1.12299811333601
5.90816326530612,88.9351275216641,698.416230049805,609.481102528141,0.375730994330804,0.790545419328381
5.93997599039616,89.6219963466638,698.416230049805,608.794233703141,0.375930943988812,0.458076185663825
5.97178871548619,90.2781252244854,698.416230049805,608.138104825319,0.376042250916171,0.125583802647936
6.00360144057623,90.9028877486606,698.416230049805,607.513342301144,0.376065099093753,-0.206938574734287
6.03541416566627,91.4957950273407,698.416230049805,606.920435022464,0.376000189046432,-0.539497976982097
6.0672268907563,92.0564964122193,698.416230049805,606.359733637585,0.375848721988313,-0.872101566605759
6.09903961584634,92.5847786738459,698.416230049805,605.831451375959,0.375612377992637,-1.20475658155772
6.13085234093637,93.0805636576013,698.416230049805,605.335666392204,0.375293288534618,-1.53747027621799
6.16266506602641,93.543904485602,698.416230049805,604.872325564203,0.374894003886206,-1.87024986067965
6.19447779111645,93.9749803990608,698.416230049805,604.441249650744,0.374417455959691,-2.20310243915798
6.22629051620648,94.3740903619691,698.416230049805,604.042139687836,0.37386691729711,-2.53603494840644
6.25810324129652,94.7416455697313,698.416230049805,603.674584480073,0.373245956981269,-2.86905409705737
6.28991596638655,95.0781610248499,698.416230049805,603.338069024955,0.37255839429912,3.08101900036116
6.32172869147659,95.3842463554654,698.416230049805,603.031983694339,0.371808251017811,2.74780765073702
6.35354141656663,95.6605960613596,698.416230049805,602.755633988445,0.37099970313823,2.41449147782583
6.38535414165666,95.9079793757289,698.416230049805,602.508250674076,0.370137032970891,2.08106524142867
6.4171668667467,96.1272299299585,698.416230049805,602.289000119846,0.369224582337019,1.7475241872468
6.44897959183673,96.3192354029344,698.416230049805,602.09699464687,0.368266707636298,1.4138640836914
6.48079231692677,96.4849273267185,698.416230049805,601.931302723086,0.367267737445363,1.0800812522979
6.51260504201681,96.6252712071033,698.416230049805,601.790958842701,0.366231933221498,0.74617259134045
6.54441776710684,96.7412571013887,698.416230049805,601.674972948416,0.365163453587742,0.412135592377665
6.57623049219688,96.8338907772799,698.416230049805,601.582339272525,0.364066322572455,0.0779683495999916
6.60804321728691,96.9041855567389,698.416230049805,601.512044493066,0.362944402071602,-0.25633043800874
