"k","deltaD","D_base","D_harmonic","amplitude","phase"
0.5,1.01188718186586,1011.9344557793,1010.92256859743,2.19790350152419,-0.231068196382456
0.531812725090036,1.00950994043239,1011.9344557793,1010.92494583886,1.82364474406052,-0.54625989629915
0.563625450180072,1.00702338435951,1011.9344557793,1010.92743239494,1.52930421667835,-0.861581058564483
0.595438175270108,1.00443434194551,1011.9344557793,1010.93002143735,1.29465931552116,-1.17704161516543
0.627250900360144,1.0017500787626,1011.9344557793,1010.93270570053,1.10532802734595,-1.49265191930779
0.65906362545018,0.998978304659659,1011.9344557793,1010.93547747464,0.950892257683314,-1.80842278101135
0.690876350540216,0.996127181182487,1011.9344557793,1010.93832859811,0.823679803819426,-2.12436550486137
0.722689075630252,0.993205329411126,1011.9344557793,1010.94125044988,0.717955928542991,-2.44049193007463
0.754501800720288,0.990221838222624,1011.9344557793,1010.94423394107,0.629375873371582,-2.75681447303773
0.786314525810324,0.987186272976714,1011.9344557793,1010.94726950632,0.554607260711268,-3.07334617247702
0.81812725090036,0.984108684639182,1011.9344557793,1010.95034709466,0.491065308665188,2.89308456976374
0.849939975990396,0.980999619335535,1011.9344557793,1010.95345615996,0.43672431647257,2.57609270911053
0.881752701080432,0.977870128345899,1011.9344557793,1010.95658565095,0.389981570429268,2.25884834736982
0.913565426170468,0.974731778539876,1011.9344557793,1010.95972400076,0.349557826755493,1.94133544685316
0.945378151260504,0.971596663261153,1011.9344557793,1010.96285911603,0.314423674466776,1.62353707712083
0.97719087635054,0.968477413655137,1011.9344557793,1010.96597836564,0.283744447104573,1.30543535121779
1.00900360144058,0.96538721044999,1011.9344557793,1010.96906856885,0.2568385887661,0.987011358581323
1.04081632653061,0.96233979618637,1011.9344557793,1010.97211598311,0.233145888262854,0.668245094696139
1.07262905162065,0.959349487902728,1011.9344557793,1010.97510629139,0.212203026551577,0.349115387659145
1.10444177671068,0.956431190270564,1011.9344557793,1010.97802458902,0.193624596843734,0.029599821936979
1.13625450180072,0.953600409180012,1011.9344557793,1010.98085537012,0.177088257411198,-0.290325340247884
1.16806722689076,0.950873265775499,1011.9344557793,1010.98358251352,0.162323031931205,-0.6106852392768
1.19987995198079,0.948266510935468,1011.9344557793,1010.98618926836,0.149100026374313,-0.93150649936938
1.23169267707083,0.945797540192984,1011.9344557793,1010.9886582391,0.137225015293151,-1.25281730952014
1.26350540216086,0.943484409086068,1011.9344557793,1010.99097137021,0.126532484613997,-1.57464750259062
1.2953181272509,0.941345848937431,1011.9344557793,1010.99310993036,0.116880816921658,-1.89702863054456
1.32713085234094,0.939401283040411,1011.9344557793,1010.99505449625,0.108148378672898,-2.2199940332517
1.35894357743097,0.937670843250203,1011.9344557793,1010.99678493605,0.100230323758234,-2.54357889759896
1.39075630252101,0.93617538695446,1011.9344557793,1010.99828039234,0.0930359692997663,-2.8678203028238
1.42256902761104,0.934936514409287,1011.9344557793,1010.99951926489,0.0864866310692228,3.0904280601739
1.45438175270108,0.933976586412314,1011.9344557793,1011.00047919288,0.0805138299944632,2.76475465868324
1.48619447779112,0.933318742295342,1011.9344557793,1011.001137037,0.0750577997547299,2.43830199244645
1.51800720288115,0.932986918193706,1011.9344557793,1011.0014688611,0.0700662398124689,2.11102543782868
1.54981992797119,0.933005865563018,1011.9344557793,1011.00144991373,0.0654932693998112,1.78287868037891
1.58163265306122,0.933401169902936,1011.9344557793,1011.00105460939,0.0612985467213294,1.45381390534995
1.61344537815126,0.934199269635656,1011.9344557793,1011.00025650966,0.0574465245146558,1.12378206794773
1.6452581032413,0.935427475087636,1011.9344557793,1010.99902830421,0.053905818548462,0.792733259823944
1.67707082833133,0.93711398751384,1011.9344557793,1010.99734179178,0.0506486699560816,0.460617190070011
1.70888355342137,0.939287918093669,1011.9344557793,1010.9951678612,0.0476504857471822,0.127383800294368
1.7406962785114,0.941979306820144,1011.9344557793,1010.99247647248,0.0448894445982341,-0.207015966063114
1.77250900360144,0.945219141194229,1011.9344557793,1010.9892366381,0.0423461572414644,-0.542629220640727
1.80432172869148,0.949039374629024,1011.9344557793,1010.98541640467,0.0400033725657385,-0.879499996103217
1.83613445378151,0.953472944444798,1011.9344557793,1010.98098283485,0.0378457220022308,-1.21766790868103
1.86794717887155,0.958553789338907,1011.9344557793,1010.97590198996,0.03585949596543,-1.55716661268392
1.89975990396158,0.964316866188369,1011.9344557793,1010.97013891311,0.0340324471149392,-1.89802205398898
1.93157262905162,0.970798166034911,1011.9344557793,1010.96365761326,0.0323536160449477,-2.24025054543612
1.96338535414166,0.978034729077194,1011.9344557793,1010.95642105022,0.0308131757357331,-2.58385670751609
1.99519807923169,0.986064658485247,1011.9344557793,1010.94839112081,0.0294022917489131,-2.92883134229694
2.02701080432173,0.994927132824841,1011.9344557793,1010.93952864647,0.0281129957403783,3.00803597123417
2.05882352941176,1.0046624168649,1011.9344557793,1010.92979336243,0.026938070419904,2.66041759410114
2.0906362545018,1.01531187050921,1011.9344557793,1010.91914390879,0.0258709446126304,2.31156131625864
2.12244897959184,1.02691795557109,1011.9344557793,1010.90753782372,0.0249055975729586,1.9615503090387
2.15426170468187,1.03952424009128,1011.9344557793,1010.8949315392,0.0240364721529336,1.6104889802171
2.18607442977191,1.05317539984787,1011.9344557793,1010.88128037945,0.0232583968120546,1.25850273447737
2.21788715486194,1.06791721670299,1011.9344557793,1010.86653856259,0.0225665167442507,0.905736828399086
2.24969987995198,1.08379657337036,1011.9344557793,1010.85065920593,0.0219562345601482,0.552354260126125
2.28151260504202,1.10086144417062,1011.9344557793,1010.83359433512,0.0214231609755238,0.198532710587888
2.31332533013205,1.11916088129476,1011.9344557793,1010.815294898,0.0209630758120124,-0.155539359669782
2.34513805522209,1.1387449960522,1011.9344557793,1010.79571078324,0.020571899327377,-0.509667268037415
2.37695078031213,1.15966493454823,1011.9344557793,1010.77479084475,0.0202456734974901,-0.863655060381056
2.40876350540216,1.1819728471753,1011.9344557793,1010.75248293212,0.0199805524280582,-1.21731054847436
2.4405762304922,1.20572185127344,1011.9344557793,1010.72873392802,0.0197728006491045,-1.57045011821338
2.47238895558223,1.23096598625455,1011.9344557793,1010.70348979304,0.019618797704667,-1.92290301901359
2.50420168067227,1.25776016044085,1011.9344557793,1010.67669561885,0.0195150472438867,-2.27451490299608
2.5360144057623,1.28616008882602,1011.9344557793,1010.64829569047,0.0194581887725209,-2.62515046227094
2.56782713085234,1.31622222090959,1011.9344557793,1010.61823355839,0.0194450103329016,-2.97469510076026
2.59963985594238,1.34800365771548,1011.9344557793,1010.58645212158,0.0194724606181534,2.9601296465062
2.63145258103241,1.38156205706355,1011.9344557793,1010.55289372223,0.0195376593499417,2.61302501443706
2.66326530612245,1.41695552612305,1011.9344557793,1010.51750025317,0.0196379051095582,2.2672276995678
2.69507803121249,1.45424250024575,1011.9344557793,1010.48021327905,0.019770680165231,1.92277003547058
2.72689075630252,1.49348160705313,1011.9344557793,1010.44097417224,0.0199336521500829,1.57966709065711
2.75870348139256,1.53473151474748,1011.9344557793,1010.39972426455,0.0201246726943636,1.23791868738531
2.79051620648259,1.57805076361296,1011.9344557793,1010.35640501568,0.0203417732944911,0.897511511153897
2.82232893157263,1.62349757970003,1011.9344557793,1010.3109581996,0.0205831588124077,0.558421200184225
2.85414165666266,1.67112966974128,1011.9344557793,1010.26332610955,0.0208471990509903,0.220614332220629
2.8859543817527,1.72100399640783,1011.9344557793,1010.21345178289,0.0211324188573816,-0.115949747690555
2.91776710684274,1.7731765331489,1011.9344557793,1010.16127924615,0.0214374871795176,-0.451317292008047
2.94957983193277,1.82770199798802,1011.9344557793,1010.10675378131,0.0217612054540352,-0.785538723261704
2.98139255702281,1.88463356587908,1011.9344557793,1010.04982221342,0.022102495646283,-1.11866741564275
3.01320528211285,1.94402255947477,1011.9344557793,1009.99043321982,0.0224603882029886,-1.45075867707795
3.04501800720288,2.00591811850325,1011.9344557793,1009.92853766079,0.0228340101205466,-1.78186891691853
3.07683073229292,2.07036684836817,1011.9344557793,1009.86408893093,0.0232225732802134,-2.11205498080919
3.10864345738295,2.13741244909556,1011.9344557793,1009.7970433302,0.0236253631574664,-2.44137363281373
3.14045618247299,2.20709532637545,1011.9344557793,1009.72736045292,0.0240417279770325,-2.76988116485321
3.17226890756303,2.27945218718526,1011.9344557793,1009.65500359211,0.0244710683575334,-3.09763311446257
3.20408163265306,2.35451562335925,1011.9344557793,1009.57994015594,0.0249128274697693,2.85850123377408
3.2358943577431,2.43231368749389,1011.9344557793,1009.5021420918,0.0253664817196039,2.53209773566709
3.26770708283313,2.51286946677544,1011.9344557793,1009.42158631252,0.0258315319594433,2.20628928515282
3.29951980792317,2.59620066167224,1011.9344557793,1009.33825511762,0.026307495230535,1.8810245905661
3.33133253301321,2.68231917799335,1011.9344557793,1009.2521366013,0.0267938970411285,1.5562534472493
3.36314525810324,2.77123074254837,1011.9344557793,1009.16322503675,0.0272902641922327,1.23192667196004
3.39495798319328,2.86293455457474,1011.9344557793,1009.07152122472,0.0277961181727739,0.90799601343566
3.42677070828331,2.95742298721154,1011.9344557793,1008.97703279208,0.0283109691589846,0.584414045138251
3.45858343337335,3.05468135556339,1011.9344557793,1008.87977442373,0.028834310668366,0.261134045252341
3.49039615846339,3.15468777030958,1011.9344557793,1008.77976800899,0.0293656149362687,-0.0618901317534419
3.52220888355342,3.25741309829937,1011.9344557793,1008.677042681,0.0299043291025863,-0.384704188272154
3.55402160864346,3.3628210540794,1011.9344557793,1008.57163472522,0.0304498723168275,-0.707353518101233
3.58583433373349,3.47086844874468,1011.9344557793,1008.46358733055,0.0310016338913842,-1.0298833393379
3.61764705882353,3.5815056247551,1011.9344557793,1008.35295015454,0.0315589726544794,-1.35233882271004
3.64945978391357,3.69467710730794,1011.9344557793,1008.23977867199,0.0321212176751761,-1.67476521242035
3.6812725090036,3.81032250428837,1011.9344557793,1008.12413327501,0.0326876705519212,-1.99720793645633
3.71308523409364,3.92837768759284,1011.9344557793,1008.0060780917,0.0332576094720111,-2.31971270307514
3.74489795918367,4.04877628845372,1011.9344557793,1007.88567949084,0.0338302952605258,-2.64232557982287
3.77671068427371,4.17145153807041,1011.9344557793,1007.76300424122,0.0344049796417371,-2.9650930509947
3.80852340936375,4.29633848211074,1011.9344557793,1007.63811729718,0.0349809159315707,2.99512325828149
3.84033613445378,4.42337659318025,1011.9344557793,1007.51107918612,0.0355573723639032,2.67190535352182
3.87214885954382,4.55251279895731,1011.9344557793,1007.38194298034,0.0361336482236344,2.34839075156108
3.90396158463385,4.68370493508826,1011.9344557793,1007.25075084421,0.0367090929128062,2.02453133349116
3.93577430972389,4.8169256209959,1011.9344557793,1007.1175301583,0.0372831280098204,1.70027878491802
3.96758703481393,4.95216654334081,1011.9344557793,1006.98228923595,0.0378552722935585,1.37558478845797
3.99939975990396,5.08944311607661,1011.9344557793,1006.84501266322,0.0384251695920055,1.0504012841436
4.031212484994,5.22879946795979,1011.9344557793,1006.70565631134,0.0389926191776994,0.724680806478731
4.06302521008403,5.3703136884061,1011.9344557793,1006.56414209089,0.0395576082701951,0.398376906755407
4.09483793517407,5.51410324122639,1011.9344557793,1006.42035253807,0.0401203460205267,0.0714446685885797
4.12665066026411,5.66033043375455,1011.9344557793,1006.27412534554,0.0406812981484481,-0.256158676751922
4.15846338535414,5.8092078071453,1011.9344557793,1006.12524797215,0.0412412211866014,-0.58447303093279
4.19027611044418,5.96100329321689,1011.9344557793,1005.97345248608,0.0418011950664005,-0.913534604233166
4.22208883553421,6.11604496540269,1011.9344557793,1005.81841081389,0.0423626525713056,-1.2433749902459
4.25390156062425,6.27472519738558,1011.9344557793,1005.65973058191,0.0429274040006666,-1.57402014981026
4.28571428571429,6.43750403408797,1011.9344557793,1005.49695174521,0.0434976552510257,-1.90548932218341
4.31752701080432,6.60491157698175,1011.9344557793,1005.32954420231,0.0440760174536444,-2.23779389068232
4.34933973589436,6.77754919004542,1011.9344557793,1005.15690658925,0.0446655063301968,-2.57093624034045
4.38115246098439,6.95608934467236,1011.9344557793,1004.97836643462,0.0452695295652065,-2.90490865590269
4.41296518607443,7.14127394158038,1011.9344557793,1004.79318183771,0.0458918607623056,3.04349298840059
4.44477791116447,7.33391097490471,1011.9344557793,1004.60054480439,0.0465365989628282,2.70792883705842
4.4765906362545,7.53486943737869,1011.9344557793,1004.39958634192,0.0472081132594545,2.37162749472675
4.50840336134454,7.7450724045251,1011.9344557793,1004.18938337477,0.047910972719389,2.03464508453385
4.54021608643457,7.96548827843458,1011.9344557793,1003.96896750086,0.0486498626079018,1.69705046416276
4.57202881152461,8.19712021606028,1011.9344557793,1003.73733556324,0.0494294887224158,1.35892470327278
4.60384153661465,8.44099381106412,1011.9344557793,1003.49346196823,0.0502544724418563,1.02036009710775
4.63565426170468,8.69814314008738,1011.9344557793,1003.23631263921,0.0511292397874158,0.681458711736312
4.66746698679472,8.96959532231585,1011.9344557793,1002.96486045698,0.0520579083000615,0.3423304888241
4.69927971188475,9.25635377403808,1011.9344557793,1002.67810200526,0.0530441757988764,0.00309097179214277
4.73109243697479,9.55938036687655,1011.9344557793,1002.37507541242,0.054091215048023,-0.336141253240863
4.76290516206483,9.87957671939978,1011.9344557793,1002.0548790599,0.0552015780176694,-0.675247283240724
4.79471788715486,10.2177648673459,1011.9344557793,1001.71669091195,0.0563771128033638,-1.01411065707161
4.8265306122449,10.5746675688519,1011.9344557793,1001.35978821044,0.0576188954338302,-1.35262001051392
4.85834333733493,10.9508885092846,1011.9344557793,1000.98356727001,0.0589271778422362,-1.69067150005016
4.89015606242497,11.3468926773807,1011.9344557793,1000.58756310191,0.0603013523079675,-2.02817088854706
4.92196878751501,11.7629871922068,1011.9344557793,1000.17146858709,0.0617399317997313,-2.36503521481792
4.95378151260504,12.1993028707302,1011.9344557793,999.735152908565,0.0632405449532082,-2.70119400235975
4.98559423769508,12.6557768398364,1011.9344557793,999.278678939459,0.0647999439549287,-3.03658999626146
5.01740696278511,13.1321365152436,1011.9344557793,998.802319264052,0.0664140234015527,2.91200585941865
5.04921968787515,13.6278852929773,1011.9344557793,998.306570486318,0.0680778482496804,2.57825331664957
5.08103241296519,14.1422903259057,1011.9344557793,997.79216545339,0.0697856892277311,2.24535513716103
5.11284513805522,14.6743727864614,1011.9344557793,997.260082992834,0.0715310644917451,1.91331661038696
5.14465786314526,15.2229010441057,1011.9344557793,996.71155473519,0.0733067868056815,1.58213180976715
5.17647058823529,15.7863872084015,1011.9344557793,996.148068570894,0.0751050160478391,1.25178467387882
5.20828331332533,16.3630875009879,1011.9344557793,995.571368278307,0.0769173173282986,0.92225015633754
5.24009603841537,16.9510069169281,1011.9344557793,994.983448862367,0.0787347253973208,0.59349539095353
5.2719087635054,17.5479086121884,1011.9344557793,994.386547167107,0.0805478162928811,0.265480829455062
5.30372148859544,18.1513284040268,1011.9344557793,993.783127375269,0.0823467872904554,-0.0618386801017296
5.33553421368547,18.758594690193,1011.9344557793,993.175861089102,0.0841215461654018,-0.388512896113743
5.36734693877551,19.3668539778407,1011.9344557793,992.567601801455,0.0858618105546723,-0.714595280559507
5.39915966386555,19.9731020628724,1011.9344557793,991.961353716423,0.0875572178182508,-1.04014219641506
5.43097238895558,20.5742207165779,1011.9344557793,991.360235062717,0.0891974452704035,-1.36521220561436
5.46278511404562,21.1670195237717,1011.9344557793,990.767436255524,0.0907723400059599,-1.68986546356396
5.49459783913565,21.7482822833978,1011.9344557793,990.186173495898,0.092272056826945,-2.01416320323926
5.52641056422569,22.3148171404878,1011.9344557793,989.619638638808,0.093687202028243,-2.33816729996488
5.55822328931573,22.8635093821223,1011.9344557793,989.070946397173,0.0950089800827972,-2.66193990690644
5.59003601440576,23.3913756164551,1011.9344557793,988.54308016284,0.0962293396358333,-2.98554315087843
5.6218487394958,23.8956178805283,1011.9344557793,988.038837898767,0.0973411147315431,2.97414642905173
5.65366146458583,24.3736761063145,1011.9344557793,987.560779672981,0.0983381569064021,2.65069686703952
5.68547418967587,24.8232773293159,1011.9344557793,987.111178449979,0.0992154537309687,2.32723279707216
5.71728691476591,25.2424800599051,1011.9344557793,986.69197571939,0.0999692295900621,2.00369438577071
5.74909963985594,25.6297123583238,1011.9344557793,986.304743420972,0.10059702496235,1.68002278698799
5.78091236494598,25.9838023570422,1011.9344557793,985.950653422253,0.101097751174732,1.35616028230698
5.81272509003601,26.3040002491916,1011.9344557793,985.630455530104,0.101471718522369,1.03205042112884
5.84453781512605,26.5899910928885,1011.9344557793,985.344464686407,0.101720636700872,0.707638166259187
5.87635054021609,26.8418981473098,1011.9344557793,985.092557631986,0.101847587618744,0.382870050373503
5.90816326530612,27.060276833231,1011.9344557793,984.874178946064,0.101856971765466,0.0576943482747357
5.93997599039616,27.2460997736869,1011.9344557793,984.688356005609,0.101754430325688,-0.267938730582677
5.97178871548619,27.4007336964536,1011.9344557793,984.533722082842,0.101546746084883,-0.594076825278774
6.00360144057623,27.5259092501005,1011.9344557793,984.408546529195,0.101241726815083,-0.920765178819502
6.03541416566627,27.623684985826,1011.9344557793,984.310770793469,0.100848075230054,-1.24804636287742
6.0672268907563,27.6964068808251,1011.9344557793,984.23804889847,0.100375249748834,-1.57595996987261
6.09903961584634,27.7466648247544,1011.9344557793,984.187790954541,0.09983332021753,-1.90454227149637
6.13085234093637,27.7772474638733,1011.9344557793,984.157208315422,0.0992328224422596,-2.23382584421874
6.16266506602641,27.7910967074516,1011.9344557793,984.143359071844,0.0985846149248447,-2.5638391641327
6.19447779111645,27.7912630609429,1011.9344557793,984.143192718352,0.0978997406190936,-2.89460617569667
6.22629051620648,27.7808627749737,1011.9344557793,984.153593004322,0.0971892958930379,3.05703946564328
6.25810324129652,27.7630376032697,1011.9344557793,984.171418176026,0.0964643082428006,2.72471362377706
6.28991596638655,27.7409177601608,1011.9344557793,984.193538019135,0.0957356237018555,2.39159397962624
6.32172869147659,27.7175884712542,1011.9344557793,984.216867308041,0.0950138043612403,2.05767923611539
6.35354141656663,27.6960603288052,1011.9344557793,984.23839545049,0.0943090359873896,1.72297481853319
6.38535414165666,27.6792435031005,1011.9344557793,984.255212276195,0.0936310454090364,1.38749320500598
6.4171668667467,27.6699257271025,1011.9344557793,984.264530052193,0.0929890271471543,1.05125417023822
6.44897959183673,27.6707538655577,1011.9344557793,984.263701913738,0.0923915786762769,0.714284917824825
6.48079231692677,27.6842188018369,1011.9344557793,984.250236977458,0.0918466437179357,0.376620077275318
6.51260504201681,27.7126433244083,1011.9344557793,984.221812454887,0.0913614630568123,0.038301544508681
6.54441776710684,27.7581726675578,1011.9344557793,984.176283111738,0.090942532512675,-0.300621850854248
6.57623049219688,27.8227673546611,1011.9344557793,984.111688424634,0.0905955678691651,-0.640094861570531
6.60804321728691,27.9081980035405,1011.9344557793,984.026257775755,0.0903254767271091,-0.980056524181264
