k,deltaD,D_base,D_harmonic,amplitude,phase
0.5,0.6920374359351626,929.5797429637121,928.8877055277769,2.23085397480986,-0.15107486177827698
0.531812725090036,0.6874079711657259,929.5797429637121,928.8923349925464,1.8526244628199218,-0.46075296566436214
0.563625450180072,0.6825128031506438,929.5797429637121,928.8972301605614,1.5550643863465705,-0.7704774544813491
0.595438175270108,0.6773555767648531,929.5797429637121,928.9023873869472,1.3177703764948376,-1.0802518405995074
0.6272509003601441,0.6719401773111713,929.5797429637121,928.9078027864009,1.1262304150626872,-1.390079779457993
0.65906362545018,0.6662707355428665,929.5797429637121,928.9134722281692,0.9699311201500757,-1.699965082111882
0.690876350540216,0.6603516330051207,929.5797429637121,928.919391330707,0.8411292463889675,-2.009911728663873
0.7226890756302521,0.6541875077023178,929.5797429637121,928.9255554560098,0.7340362650785917,-2.319923882671707
0.7545018007202882,0.6477832601007094,929.5797429637121,928.9319597036114,0.644266110885232,-2.6300059066362036
0.7863145258103241,0.6411440594721398,929.5797429637121,928.9385989042399,0.5684542745825628,-2.9401623786821953
0.8181272509003601,0.6342753505842893,929.5797429637121,928.9454676131278,0.5039906810175881,3.032787196623179
0.8499399759903962,0.6271828607531234,929.5797429637121,928.952560102959,0.4488294987508418,2.7224671400988694
0.8817527010804321,0.6198726072591398,929.5797429637121,928.9598703564529,0.4013518270618278,2.41205741996557
0.9135654261704682,0.6123509051394649,929.5797429637121,928.9673920585726,0.3602652804920731,2.1015524002876527
0.9453781512605042,0.6046243753663703,929.5797429637121,928.9751185883457,0.3245296815800383,1.7909461233467077
0.9771908763505401,0.5966999534171009,929.5797429637121,928.983043010295,0.2933014669942768,1.4802322826579706
1.0090036014405763,0.5885848982512698,929.5797429637121,928.9911580654608,0.26589166805267556,1.1694041935766282
1.0408163265306123,0.5802868017026412,929.5797429637121,928.9994561620094,0.24173384800965653,0.858454761231224
1.0726290516206483,0.5718135982914418,929.5797429637121,929.0079293654206,0.22035941872873685,0.547376445492815
1.1044417767106842,0.5631735754773217,929.5797429637121,929.0165693882348,0.20137847983479348,0.23616122265304823
1.1362545018007202,0.5543753843542163,929.5797429637121,929.0253675793579,0.18446482841493128,-0.07519945655479487
1.1680672268907561,0.545428050804162,929.5797429637121,929.0343149129079,0.16934414528325778,-0.38671471300194243
1.1998799519807923,0.5363409871144995,929.5797429637121,929.0434019765976,0.15578462021942205,-0.6983942897374162
1.2316926770708283,0.5271240040766543,929.5797429637121,929.0526189596354,0.14358946407705078,-1.010248607604876
1.2635054021608643,0.5177873235710422,929.5797429637121,929.061955640141,0.13259089109980693,-1.3222888264837698
1.2953181272509005,0.5083415916485592,929.5797429637121,929.0714013720635,0.12264525455334592,-1.6345269128068165
1.3271308523409364,0.49879789212468495,929.5797429637121,929.0809450715874,0.11362909289374573,-1.9469757140875863
1.3589435774309724,0.4891677606862004,929.5797429637121,929.0905752030259,0.10543589917533343,-2.2596490412837773
1.3907563025210083,0.47946319952825434,929.5797429637121,929.1002797641838,0.09797346825038268,-2.5725617599244273
1.4225690276110443,0.46969669252530366,929.5797429637121,929.1100462711868,0.09116170810426871,-2.8857298910455476
1.4543817527010803,0.4598812209441121,929.5797429637121,929.119861742768,0.084930825980395,3.084014584071288
1.4861944777911165,0.45003027970574294,929.5797429637121,929.1297126840063,0.0792198186634193,2.770282370961234
1.5180072028811524,0.4401578942014339,929.5797429637121,929.1395850695106,0.0739752107795334,2.4562385670534836
1.5498199279711884,0.4302786376708809,929.5797429637121,929.1494643260412,0.06914999626162875,2.1418612795155796
1.5816326530612244,0.42040764912962914,929.5797429637121,929.1593353145824,0.06470274696845159,1.827126761708193
1.6134453781512605,0.4105606518695595,929.5797429637121,929.1691823118425,0.06059685941110261,1.512009223113787
1.6452581032412965,0.40075397250848255,929.5797429637121,929.1789889912036,0.056799916051411825,1.1964806176373546
1.6770708283313325,0.3910045605948653,929.5797429637121,929.1887384031172,0.053283142022017935,0.8805104077671805
1.7088835534213684,0.38133000875905054,929.5797429637121,929.198412954953,0.05002094162229062,0.5640653018522714
1.7406962785114046,0.37174857339653045,929.5797429637121,929.2079943903155,0.04699050175850838,0.2471089615333417
1.7725090036014406,0.362279195868382,929.5797429637121,929.2174637678437,0.04417145176616567,-0.07039832382492807
1.8043217286914766,0.35294152420260616,929.5797429637121,929.2268014395095,0.04154557089111943,-0.3884999989824219
1.8361344537815125,0.3437559352637436,929.5797429637121,929.2359870284483,0.039096536201607045,-0.7072436442644789
1.8679471788715485,0.33474355736780126,929.5797429637121,929.2449994063443,0.03680970492501075,-1.0266814197746343
1.8997599039615847,0.3259262932974707,929.5797429637121,929.2538166704146,0.034671926205072305,-1.3468705551800768
1.9315726290516206,0.31732684367864294,929.5797429637121,929.2624161200334,0.03267137810015812,-1.6678738871232068
1.9633853541416566,0.30896873066058106,929.5797429637121,929.2707742330515,0.030797426324721038,-1.9897604450265385
1.9951980792316926,0.3008763218349486,929.5797429637121,929.2788666418771,0.029040501801098524,-2.312606083997437
2.0270108043217285,0.29307485432832436,929.5797429637121,929.2866681093838,0.027391994558099445,-2.6364941603816208
2.0588235294117645,0.2855904589698639,929.5797429637121,929.2941525047422,0.025844161903023972,-2.961516240820881
2.090636254501801,0.2784501844505485,929.5797429637121,929.3012927792615,0.024390049117178497,2.995412478319121
2.1224489795918364,0.2716820213449864,929.5797429637121,929.3080609423671,0.023023421191005894,2.667811223721534
2.154261704681873,0.2653149258819667,929.5797429637121,929.3144280378301,0.021738704329344147,2.3387448169792204
2.186074429771909,0.2593788433005102,929.5797429637121,929.3203641204116,0.02053093612340845,2.0080818797464244
2.2178871548619448,0.25390473063635,929.5797429637121,929.3258382330757,0.019395723403468356,1.6756797627132443
2.2496998799519807,0.24892457874182128,929.5797429637121,929.3308183849703,0.018329206851473566,1.3413844711326586
2.2815126050420167,0.24447143332906762,929.5797429637121,929.335271530383,0.017328031459298232,1.005031052081637
2.3133253301320527,0.24057941479122746,929.5797429637121,929.3391635489209,0.01638932185522457,0.6664446534713689
2.3451380552220886,0.23728373653500512,929.5797429637121,929.3424592271771,0.015510661376050696,0.32544252561011483
2.376950780312125,0.23462072152142355,929.5797429637121,929.3451222421907,0.014690073521093017,-0.018162698527771654
2.4087635054021606,0.23262781667278887,929.5797429637121,929.3471151470393,0.01392600407785048,-0.3645580478899705
2.440576230492197,0.2313436047796813,929.5797429637121,929.3483993589324,0.01321730175989031,-0.7139231491327368
2.472388955582233,0.23080781347618995,929.5797429637121,929.3489351502359,0.01256319467377779,-1.0664206352551437
2.504201680672269,0.23106132083478315,929.5797429637121,929.3486816428773,0.011963259406561517,-1.42218371928987
2.536014405762305,0.2321461570613792,929.5797429637121,929.3475968066507,0.011417379137697229,-1.7813008845127114
2.567827130852341,0.23410550173207412,929.5797429637121,929.34563746198,0.010925687152065289,-2.1437981031789053
2.599639855942377,0.23698367595022773,929.5797429637121,929.3427592877619,0.01048849276398887,-2.5096196836826654
2.6314525810324128,0.24082612875429277,929.5797429637121,929.3389168349578,0.010106188279398406,-2.878609719375648
2.6632653061224487,0.24567941703037377,929.5797429637121,929.3340635466817,0.009779138443958996,3.032688293390964
2.695078031212485,0.25159117813359444,929.5797429637121,929.3281517855785,0.009507557766012515,2.658298318116804
2.726890756302521,0.2586100943454994,929.5797429637121,929.3211328693666,0.009291385572084566,2.2819212551495505
2.758703481392557,0.2667858482352585,929.5797429637121,929.3129571154768,0.009130172475713284,1.9041784567386595
2.790516206482593,0.2761690679125195,929.5797429637121,929.3035738957996,0.00902299359626723,1.5257685736702298
2.822328931572629,0.28681126110575406,929.5797429637121,929.2929317026063,0.008968402080769138,1.1474283693575362
2.854141656662665,0.2987647369191109,929.5797429637121,929.280978226793,0.008964430981962857,0.7698879086989431
2.885954381752701,0.31208251407360876,929.5797429637121,929.2676604496385,0.009008643485724582,0.3938267035072172
2.917767106842737,0.3268182143754075,929.5797429637121,929.2529247493367,0.009098223164103261,0.019837139122758824
2.949579831932773,0.3430259401023932,929.5797429637121,929.2367170236097,0.00923008983669756,-0.3516003828456478
2.9813925570228093,0.3607601339900839,929.5797429637121,929.218982829722,0.009401024304519409,-0.7201289221764113
3.013205282112845,0.38007542045909304,929.5797429637121,929.199667543253,0.009607786736524689,-1.0855141069718264
3.045018007202881,0.40102642675014977,929.5797429637121,929.1787165369619,0.009847217646971702,-1.4476337110165005
3.076830732292917,0.42366758266723537,929.5797429637121,929.1560753810448,0.010116315511850299,-1.8064612756978276
3.108643457382953,0.44805289769965384,929.5797429637121,929.1316900660124,0.01041228969399134,-2.1620471540480457
3.140456182472989,0.47423571442197954,929.5797429637121,929.1055072492901,0.010732590673902462,-2.514499608563568
3.172268907563025,0.5022684372268031,929.5797429637121,929.0774745264853,0.011074921444284624,-2.8639676767838025
3.204081632653061,0.5322022356992875,929.5797429637121,929.0475407280128,0.011437234559420436,3.072558619593372
3.235894357743097,0.5640867222398356,929.5797429637121,929.0156562414722,0.011817719135917696,2.7285186200143396
3.2677070828331334,0.5979696039502187,929.5797429637121,928.9817733597619,0.012214781463471247,2.3869016726980776
3.2995198079231693,0.6338963092948688,929.5797429637121,928.9458466544172,0.01262702209174409,2.0475122927099396
3.3313325330132053,0.6719095906703387,929.5797429637121,928.9078333730417,0.0130532114905478,1.7101598684574488
3.3631452581032413,0.7120491047609221,929.5797429637121,928.8676938589512,0.013492265724121912,1.3746615005381257
3.3949579831932772,0.7543509734546205,929.5797429637121,928.8253919902575,0.013943223065450597,1.0408436609879839
3.426770708283313,0.7988473291395621,929.5797429637121,928.7808956345725,0.014405222098400745,0.7085429907323361
3.458583433373349,0.8455658494219733,929.5797429637121,928.7341771142901,0.014877481593674918,0.37760648835628974
3.490396158463385,0.8945292876913982,929.5797429637121,928.6852136760207,0.01535928227451678,0.047891284833507554
3.522208883553421,0.9457550075383097,929.5797429637121,928.6339879561738,0.015849950486532066,-0.2807358502953754
3.554021608643457,0.9992545307618457,929.5797429637121,928.5804884329502,0.01634884373341417,-0.6083991651613458
3.5858343337334935,1.0550331106118165,929.5797429637121,928.5247098531003,0.016855338021589606,-0.9352146685218103
3.6176470588235294,1.113089343924912,929.5797429637121,928.4666536197872,0.017368816960470938,-1.2612909066247633
3.6494597839135654,1.1734148379665612,929.5797429637121,928.4063281257455,0.017888662582880875,-1.5867297380002483
3.6812725090036014,1.2359939499143593,929.5797429637121,928.3437490137977,0.018414247876396894,-1.9116270822905168
3.7130852340936373,1.3008036190640269,929.5797429637121,928.278939344648,0.01894493104663148,-2.2360736277248465
3.7448979591836733,1.3678133138002977,929.5797429637121,928.2119296499118,0.019480051564635177,-2.5601554876435952
3.7767106842737093,1.436985117094423,929.5797429637121,928.1427578466177,0.020018928080250256,-2.8839548002851108
3.8085234093637452,1.508273975592715,929.5797429637121,928.0714689881194,0.020560858309217542,3.0756350387759808
3.840336134453781,1.5816281380905366,929.5797429637121,927.9981148256215,0.021105121022194803,2.7521676705964917
3.8721488595438176,1.6569898091465802,929.5797429637121,927.9227531545655,0.021650980276621084,2.428755202529053
3.9039615846338536,1.7342960425786487,929.5797429637121,927.8454469211334,0.022197692035541033,2.105326631593704
3.9357743097238895,1.813479897404818,929.5797429637121,927.7662630663073,0.022744513308987763,1.781812871235077
3.9675870348139255,1.8944718752240988,929.5797429637121,927.685271088488,0.023290713931166687,1.4581465410092258
3.9993997599039615,1.9772016529168468,929.5797429637121,927.6025413107952,0.02383559104840829,1.1342618297851375
4.031212484993997,2.0616001177298813,929.5797429637121,927.5181428459822,0.02437848633676129,0.8100944367078458
4.063025210084033,2.147601703251894,929.5797429637121,927.4321412604602,0.024918805892632342,0.4855815949746697
4.09483793517407,2.2351470144326413,929.5797429637121,927.3445959492794,0.025456042644165133,0.1606621841427074
4.126650660264105,2.324185717858427,929.5797429637121,927.2555572458537,0.025989801014962774,-0.16472306290028513
4.158463385354142,2.414679660107481,929.5797429637121,927.1650633036046,0.02651982343643094,-0.4906312521476058
4.190276110444177,2.5066061626404235,929.5797429637121,927.0731368010717,0.027046018152968275,-0.8171169142431812
4.222088835534214,2.599961426759137,929.5797429637121,926.9797815369529,0.02756848759972903,-1.144231479451306
4.25390156062425,2.694763967416975,929.5797429637121,926.8849789962951,0.028087556461993374,-1.4720226396729426
4.285714285714286,2.7910579807523845,929.5797429637121,926.7886849829597,0.028603798356746715,-1.800533598702587
4.317527010804321,2.8889165380372788,929.5797429637121,926.6908264256748,0.02911805992155992,-2.129802216594126
4.3493397358943575,2.9884444890655004,929.5797429637121,926.5912984746466,0.029631480966123794,-2.459860060135186
4.381152460984394,3.0897809516909547,929.5797429637121,926.4899620120211,0.030145509252499158,-2.79073137904354
4.4129651860744294,3.1931012619174908,929.5797429637121,926.3866417017946,0.03066190843715717,-3.122432036462172
4.444777911164466,3.2986182612104358,929.5797429637121,926.2811247025016,0.031182757747286276,2.828216874894329
4.476590636254501,3.406582804773052,929.5797429637121,926.173160158939,0.03171044209038233,2.4948488390210994
4.508403361344538,3.517283386473423,929.5797429637121,926.0624595772387,0.03224763152134426,2.1606646944623615
4.540216086434573,3.631044792633702,929.5797429637121,925.9486981710784,0.03279724932106347,1.8256921736812606
4.57202881152461,3.7482257174202687,929.5797429637121,925.8315172462918,0.033362428372524656,1.4899717406696997
4.603841536614646,3.8692152963501485,929.5797429637121,925.7105276673619,0.033946456041806565,1.1535568130692577
4.635654261704682,3.994428540393983,929.5797429637121,925.5853144233181,0.034552708356873976,0.8165136119215042
4.667466986794718,4.124300680316878,929.5797429637121,925.4554422833952,0.03518457488892415,0.4789205887433869
4.699279711884754,4.259280458067451,929.5797429637121,925.3204625056446,0.0358453763307283,0.14086740065537903
4.73109243697479,4.399822428307289,929.5797429637121,925.1799205354048,0.03653827727882277,-0.19754656834178158
4.7629051620648255,4.546378357679714,929.5797429637121,925.0333646060324,0.03726619710658986,-0.5362141102310667
4.794717887154862,4.699387831672425,929.5797429637121,924.8803551320397,0.03803172201656872,-0.8750224575373097
4.826530612244897,4.859268198606628,929.5797429637121,924.7204747651055,0.038837021352898154,-1.2138558170496563
4.858343337334934,5.026403997488956,929.5797429637121,924.5533389662231,0.03968377103220106,-1.5525980565942021
4.89015606242497,5.201136031437727,929.5797429637121,924.3786069322744,0.040573086533817276,-1.891135414872591
4.921968787515006,5.383750261701152,929.5797429637121,924.1959927020109,0.0415054673236405,-2.2293591021970447
4.953781512605042,5.5744667095243585,929.5797429637121,924.0052762541877,0.042480753934472516,-2.567167669764276
4.985594237695078,5.773428564889741,929.5797429637121,923.8063143988223,0.04349809826324615,-2.904469045515772
5.017406962785114,5.980691713027795,929.5797429637121,923.5990512506843,0.04455594704268428,3.042003144382979
5.04921968787515,6.1962149017178945,929.5797429637121,923.3835280619942,0.04565203795955663,2.7059471669343305
5.081032412965186,6.4198507848310555,929.5797429637121,923.159892178881,0.046783407560431166,2.370604303435634
5.112845138055222,6.651338089629689,929.5797429637121,922.9284048740824,0.04794640992100162,2.036017336768644
5.144657863145258,6.890295166148803,929.5797429637121,922.6894477975633,0.04913674504567239,1.7022159691487215
5.176470588235294,7.136215184949606,929.5797429637121,922.4435277787625,0.05034949607998391,1.3692172675408885
5.20828331332533,7.38846325269526,929.5797429637121,922.1912797110168,0.051579174617186925,1.0370263752263036
5.240096038415366,7.646275711017324,929.5797429637121,921.9334672526948,0.05281977361385469,0.7056374185278188
5.271908763505402,7.908761870439548,929.5797429637121,921.6709810932725,0.05406482765095593,0.37503454084486615
5.303721488595438,8.174908405124825,929.5797429637121,921.4048345585873,0.055307480445443605,0.04519300319801402
5.335534213685474,8.443586593695159,929.5797429637121,921.1361563700169,0.05654055960170923,-0.2839197000885077
5.36734693877551,8.71356253457077,929.5797429637121,920.8661804291413,0.05775665857216395,-0.6123427514876792
5.399159663865546,8.983510390490892,929.5797429637121,920.5962325732212,0.0589482256637705,-0.940120976667371
5.430972388955582,9.252028626604783,929.5797429637121,920.3277143371073,0.060107659686495174,-1.2673038880855145
5.4627851140456185,9.517659101704567,929.5797429637121,920.0620838620075,0.0612274115055045,-1.5939448183187925
5.494597839135654,9.778908756577835,929.5797429637121,919.8008342071342,0.06230009035646787,-1.9201001487549776
5.52641056422569,10.03427352235849,929.5797429637121,919.5454694413536,0.06331857334559073,-2.245828633854602
5.558223289315726,10.28226395204615,929.5797429637121,919.2974790116659,0.06427611612180723,-2.5711908171452915
5.590036014405762,10.521431967964418,929.5797429637121,919.0583109957477,0.06516646231950653,-2.8962485322791993
5.621848739495798,10.750398025321829,929.5797429637121,918.8293449383902,0.06598394906726254,3.0621208265267352
5.653661464585834,10.967877925366679,929.5797429637121,918.6118650383454,0.06672360567793974,2.7374834311300886
5.68547418967587,11.172708478086179,929.5797429637121,918.4070344856259,0.06738124260668533,2.412961160863312
5.717286914765906,11.363871219025668,929.5797429637121,918.2158717446864,0.06795352790268964,2.0884906251217057
5.749099639855943,11.540513430231385,929.5797429637121,918.0392295334807,0.06843804869113476,1.764008684614236
5.780912364945978,11.701965800844391,929.5797429637121,917.8777771628677,0.06883335569133711,1.4394526375940109
5.812725090036015,11.847756184621062,929.5797429637121,917.731986779091,0.06913898937889419,1.1147603871971299
5.84453781512605,11.97761906269102,929.5797429637121,917.6021239010211,0.06935548709445763,0.7898705983988226
5.8763505402160865,12.09150049066659,929.5797429637121,917.4882424730455,0.06948437114147374,0.46472285269911395
5.908163265306122,12.189558488826606,929.5797429637121,917.3901844748855,0.06952811864778417,0.13925780831455287
5.939975990396158,12.272159010775567,929.5797429637121,917.3075839529365,0.06949011464040554,-0.18658262662911776
5.971788715486194,12.339867788793185,929.5797429637121,917.2398751749189,0.06937459035428432,-0.5128551006589165
6.00360144057623,12.393438493425379,929.5797429637121,917.1863044702867,0.06918654922974529,-0.8396145982906792
6.035414165666267,12.433797753633371,929.5797429637121,917.1459452100787,0.06893168332809435,-1.1669141854935914
6.067226890756302,12.462027657649287,929.5797429637121,917.1177153060628,0.06861628300287814,-1.4948047151196309
6.099039615846339,12.479346392188177,929.5797429637121,917.1003965715239,0.06824714261175578,-1.8233344868486645
