"k","deltaD","D_base","D_harmonic","amplitude","phase"
0.5,4.3999350587784,609.57744014345,605.177505084671,12.7584733611942,-0.168340796678332
0.531812725090036,4.39118737460717,609.57744014345,605.186252768843,10.6321399825674,-0.47929032269368
0.563625450180072,4.38192875196444,609.57744014345,605.195511391485,8.95750233916182,-0.790317379636364
0.595438175270108,4.37216467185237,609.57744014345,605.205275471597,7.62051611194255,-1.1014270672881
0.627250900360144,4.36190104407706,609.57744014345,605.215539099373,6.54003682955385,-1.41262456605231
0.65906362545018,4.35114422706829,609.57744014345,605.226295916382,5.65725580352042,-1.7239151420193
0.690876350540216,4.33990104909788,609.57744014345,605.237539094352,4.92884204121071,-2.03530415195358
0.722689075630252,4.3281788309456,609.57744014345,605.249261312504,4.32238927591745,-2.3467970482362
0.754501800720288,4.31598541006053,609.57744014345,605.261454733389,3.81333177533676,-2.65839938377543
0.786314525810324,4.3033291662797,609.57744014345,605.27411097717,3.382816614961,-2.97011681687205
0.81812725090036,4.29021904915589,609.57744014345,605.287221094294,3.01621121465123,3.00123019111106
0.849939975990396,4.27666460695548,609.57744014345,605.300775536494,2.7020404584498,2.68926514224571
0.881752701080432,4.2626760173938,609.57744014345,605.314764126056,2.43121913292219,2.37716734038535
0.913565426170468,4.24826412015921,609.57744014345,605.329176023291,2.19649047564999,2.06493065780644
0.945378151260504,4.23344045130386,609.57744014345,605.343999692146,1.99201059285878,1.75254883784552
0.97719087635054,4.21821727956228,609.57744014345,605.359222863888,1.81303745156315,1.44001549049766
1.00900360144058,4.20260764466309,609.57744014345,605.374832498787,1.65569574431962,1.12732408818012
1.04081632653061,4.18662539771094,609.57744014345,605.390814745739,1.51679741817978,0.814467961700623
1.07262905162065,4.17028524369869,609.57744014345,605.407154899751,1.39370346804157,0.5014402964694
1.10444177671068,4.15360278622541,609.57744014345,605.423837357224,1.28421661787658,0.188234129008722
1.13625450180072,4.13659457448659,609.57744014345,605.440845568963,1.18649733390233,-0.125157656188317
1.16806722689076,4.11927815260219,609.57744014345,605.458161990848,1.0989976132258,-0.438742329390272
1.19987995198079,4.10167211134774,609.57744014345,605.475768032102,1.02040842393568,-0.75252731787642
1.23169267707083,4.08379614235196,609.57744014345,605.493644001098,0.949617709134132,-1.06652020763089
1.26350540216086,4.06567109481637,609.57744014345,605.511769048633,0.885676624299304,-1.38072874439014
1.2953181272509,4.04731903480831,609.57744014345,605.530121108642,0.827772235093035,-1.69516083395049
1.32713085234094,4.0287633071722,609.57744014345,605.548676836278,0.775205317028243,-2.00982454162593
1.35894357743097,4.01002860009919,609.57744014345,605.567411543351,0.727372208668729,-2.32472809074108
1.39075630252101,3.99114101237524,609.57744014345,605.586299131075,0.683749904059079,-2.63987986002594
1.42256902761104,3.97212812332725,609.57744014345,605.605312020123,0.64388374791247,-2.95528837976911
1.45438175270108,3.95301906546422,609.57744014345,605.624421077986,0.607377233101929,3.01222298060415
1.48619447779112,3.93384459979347,609.57744014345,605.643595543656,0.573883504691256,2.6962747906265
1.51800720288115,3.91463719377941,609.57744014345,605.66280294967,0.543098255861199,2.3800434104306
1.54981992797119,3.89543110187901,609.57744014345,605.682009041571,0.514753764249497,2.06351977255055
1.58163265306122,3.87626244856631,609.57744014345,605.701177694884,0.488613866740113,1.74669470178763
1.61344537815126,3.85716931372883,609.57744014345,605.720270829721,0.464469709707188,1.42955893029453
1.6452581032413,3.83819182027912,609.57744014345,605.739248323171,0.44213614259453,1.11210311529676
1.67707082833133,3.81937222378508,609.57744014345,605.758067919665,0.421448647251931,0.7943178597083
1.70888355342137,3.80075500387909,609.57744014345,605.776685139571,0.402260715080988,0.476193735903289
1.7406962785114,3.7823869571514,609.57744014345,605.795053186298,0.384441599788257,0.157721312918904
1.77250900360144,3.76431729117178,609.57744014345,605.813122852278,0.367874386253087,-0.161108812636942
1.80432172869148,3.74659771922552,609.57744014345,605.830842424224,0.352454326294903,-0.480305981694089
1.83613445378151,3.7292825552646,609.57744014345,605.848157588185,0.338087400488858,-0.799879433575446
1.86794717887155,3.71242880850161,609.57744014345,605.865011334948,0.324689071997576,-1.11983826234008
1.89975990396158,3.69609627697332,609.57744014345,605.881343866477,0.312183203973454,-1.44019136837599
1.93157262905162,3.6803476393078,609.57744014345,605.897092504142,0.300501116678534,-1.76094740503536
1.96338535414166,3.66524854380816,609.57744014345,605.912191599642,0.289580764253958,-2.08211472014545
1.99519807923169,3.65086769384379,609.57744014345,605.926572449606,0.279366014204914,-2.40370129228341
2.02701080432173,3.63727692840826,609.57744014345,605.940163215042,0.269806015268409,-2.72571466177293
2.05882352941176,3.62455129654961,609.57744014345,605.9528888469,0.260854641494341,-3.04816185644385
2.0906362545018,3.61276912422113,609.57744014345,605.964671019229,0.252470002181154,2.91213599487912
2.12244897959184,3.60201207192415,609.57744014345,605.975428071526,0.244614008820633,2.58880251781509
2.15426170468187,3.59236518133264,609.57744014345,605.985074962117,0.237251991478938,2.26501802408065
2.18607442977191,3.58391690888914,609.57744014345,605.993523234561,0.230352358113794,1.94077837520067
2.21788715486194,3.57675914414733,609.57744014345,606.000680999303,0.223886291232701,1.61608038522615
2.24969987995198,3.57098721042792,609.57744014345,606.006452933022,0.217827477065475,1.29092191844391
2.28151260504202,3.56669984511461,609.57744014345,606.010740298335,0.212151863077489,0.965301988111044
2.31332533013205,3.56399915669215,609.57744014345,606.013440986758,0.206837440206432,0.639220854851975
2.34513805522209,3.56299055539057,609.57744014345,606.014449588059,0.201864046683412,0.312680123134778
2.37695078031213,3.56378265406602,609.57744014345,606.013657489384,0.197213190709102,-0.0143171659718931
2.40876350540216,3.56648713572406,609.57744014345,606.010953007726,0.192867889610333,-0.341766447762395
2.4405762304922,3.57121858388552,609.57744014345,606.006221559564,0.188812523410399,-0.669661554758098
2.47238895558223,3.57809427180314,609.57744014345,605.999345871647,0.18503270101508,-0.99799464779416
2.50420168067227,3.58723390639341,609.57744014345,605.990206237056,0.181515137452479,-1.32675615974697
2.5360144057623,3.59875932263253,609.57744014345,605.978680820817,0.178247540813346,-1.65593475435374
2.56782713085234,3.61279412413262,609.57744014345,605.964646019317,0.175218507724292,-1.98551730253741
2.59963985594238,3.62946326563645,609.57744014345,605.947976877813,0.17241742635243,-2.31548887852804
2.63145258103241,3.64889257330071,609.57744014345,605.928547570149,0.169834386090028,-2.64583277785842
2.66326530612245,3.67120819888532,609.57744014345,605.906231944565,0.167460093203313,-2.97653055900154
2.69507803121249,3.69653600434071,609.57744014345,605.880904139109,0.165285791853927,2.97562319716725
2.72689075630252,3.72500087384378,609.57744014345,605.852439269606,0.163303190014629,2.64427956614229
2.75870348139256,3.75672595106062,609.57744014345,605.820714192389,0.161504389905595,2.31264700420158
2.79051620648259,3.79183180036955,609.57744014345,605.78560834308,0.159881822673879,1.98074997522915
2.82232893157263,3.83043549197487,609.57744014345,605.747004651475,0.158428187127856,1.64861408868334
2.85414165666266,3.87264961229084,609.57744014345,605.704790531159,0.157136392421106,1.31626590738015
2.8859543817527,3.91858120272332,609.57744014345,605.658858940727,0.155999504656768,0.983732734707758
2.91776710684274,3.96833063200449,609.57744014345,605.609109511445,0.155010697454538,0.651042384354346
2.94957983193277,4.02199040957714,609.57744014345,605.555449733873,0.154163206587958,0.318222936202092
2.98139255702281,4.07964395013937,609.57744014345,605.49779619331,0.15345028885985,-0.0146975174906289
3.01320528211285,4.14136430235885,609.57744014345,605.436075841091,0.152865185438057,-0.347691131153784
3.04501800720288,4.20721285786749,609.57744014345,605.370227285582,0.152401089921587,-0.680730565550643
3.07683073229292,4.27723805991536,609.57744014345,605.300202083534,0.152051121447423,-1.01378924328556
3.10864345738295,4.3514741343829,609.57744014345,605.225966009067,0.151808303179195,-1.34684159555768
3.14045618247299,4.42993986911847,609.57744014345,605.147500274331,0.151665546538209,-1.67986329578601
3.17226890756303,4.5126374706158,609.57744014345,605.064802672834,0.151615641542219,-2.01283147610227
3.20408163265306,4.5995515297127,609.57744014345,604.977888613737,0.151651253604506,-2.34572492318362
3.2358943577431,4.69064813006207,609.57744014345,604.886792013388,0.151764927111744,-2.67852425045408
3.26770708283313,4.78587413438868,609.57744014345,604.791566009061,0.151949096040208,-3.0112120442918
3.29951980792317,4.88515668376419,609.57744014345,604.692283459686,0.152196101782803,2.9394123246662
3.33133253301321,4.98840294411036,609.57744014345,604.589037199339,0.152498218241881,2.60699138314081
3.36314525810324,5.09550013165551,609.57744014345,604.481940011794,0.152847684094016,2.27472133792801
3.39495798319328,5.20631584500904,609.57744014345,604.371124298441,0.153236741953482,1.94261081603928
3.42677070828331,5.32069872578541,609.57744014345,604.256741417664,0.153657683955327,1.61066616935239
3.45858343337335,5.4384794623295,609.57744014345,604.13896068112,0.154102903052288,1.2788914996258
3.49039615846339,5.55947214218531,609.57744014345,604.017968001265,0.154564949082719,0.94728870958374
3.52220888355342,5.68347594876604,609.57744014345,603.893964194684,0.155036588430932,0.615857578254612
3.55402160864346,5.81027718657617,609.57744014345,603.767162956874,0.15551086588228,0.28459585845566
3.58583433373349,5.93965160779794,609.57744014345,603.637788535652,0.155981167088948,-0.0465006059215229
3.61764705882353,6.07136700165188,609.57744014345,603.506073141798,0.156441279925427,-0.377437745361123
3.64945978391357,6.2051859973011,609.57744014345,603.372254146149,0.15688545294013,-0.70822311559133
3.6812725090036,6.34086902182901,609.57744014345,603.236571121621,0.157308449113295,-1.03886573665433
3.71308523409364,6.47817734757712,609.57744014345,603.099262795873,0.157705593218872,-1.36937592301766
3.74489795918367,6.61687615837775,609.57744014345,602.960563985072,0.158072811260372,-1.69976510757424
3.77671068427371,6.75673756231765,609.57744014345,602.820702581132,0.158406660702454,-2.03004566233555
3.80852340936375,6.89754347977646,609.57744014345,602.679896663673,0.158704350539439,-2.36023071852677
3.84033613445378,7.03908833958087,609.57744014345,602.538351803869,0.158963750610636,-2.69033398864344
3.87214885954382,7.18118152295256,609.57744014345,602.396258620497,0.159183389968671,-3.02036959282846
3.90396158463385,7.3236495040843,609.57744014345,602.253790639366,0.159362444506021,2.93283341549884
3.93577430972389,7.46633764708702,609.57744014345,602.111102496363,0.159500714422399,2.60288997985885
3.96758703481393,7.60911163104993,609.57744014345,601.9683285124,0.159598592449608,2.27297103295679
3.99939975990396,7.75185848734191,609.57744014345,601.825581656108,0.159657024022851,1.94306240618463
4.031212484994,7.89448724540159,609.57744014345,601.682952898048,0.159677460786673,1.61315026322643
4.06302521008403,8.03692919448781,609.57744014345,601.540510948962,0.1596618089435,1.2832212141633
4.09483793517407,8.17913777874435,609.57744014345,601.398302364706,0.159612373993944,0.953262417029475
4.12665066026411,8.32108815110848,609.57744014345,601.256351992341,0.159531803386596,0.623261666856138
4.15846338535414,8.46277641786253,609.57744014345,601.114663725587,0.159423028501173,0.29320747246315
4.19027611044418,8.60421860996985,609.57744014345,600.97322153348,0.159289207246056,-0.0369108785616933
4.22208883553421,8.74544941977535,609.57744014345,600.831990723674,0.159133668373785,-0.367103266124329
4.25390156062425,8.88652074240838,609.57744014345,600.690919401041,0.158959858420681,-0.697378694467132
4.28571428571429,9.02750006049007,609.57744014345,600.54994008296,0.158771291972679,-1.02774525888666
4.31752701080432,9.16846870885263,609.57744014345,600.408971434597,0.158571505760261,-1.35821012160907
4.34933973589436,9.3095200531709,609.57744014345,600.267920090279,0.158364016899838,-1.68877949612416
4.38115246098439,9.45075761302201,609.57744014345,600.126682530428,0.158152285433822,-2.01945863931929
4.41296518607443,9.59229315615062,609.57744014345,599.985146987299,0.157939681180618,-2.35025185080985
4.44477791116447,9.73424478689162,609.57744014345,599.843195356558,0.157729454790856,-2.68116247892701
4.4765906362545,9.87673504795373,609.57744014345,599.700705095496,0.15752471281735,-3.0121929328898
4.50840336134454,10.0198890512529,609.57744014345,599.557551092197,0.157328396542088,2.93984060642587
4.54021608643457,10.1638326503245,609.57744014345,599.413607493125,0.157143264261803,2.6085669343945
4.57202881152461,10.3086906640647,609.57744014345,599.268749479385,0.156971876711343,2.27717163721893
4.60384153661465,10.4545851592657,609.57744014345,599.122854984184,0.156816585298125,1.9456558298512
4.63565426170468,10.6016337975317,609.57744014345,598.975806345918,0.156679522828099,1.61402142518754
4.66746698679472,10.7499482507882,609.57744014345,598.827491892662,0.156562596420992,1.2822710916849
4.69927971188475,10.8996326886058,609.57744014345,598.677807454844,0.156467482337204,0.95040820680226
4.73109243697479,11.0507823399909,609.57744014345,598.526657803459,0.156395622468449,0.618436806500045
4.76290516206483,11.2034821320541,609.57744014345,598.373958011396,0.156348222276696,0.286361531050859
4.79471788715486,11.3578054080418,609.57744014345,598.219634735408,0.1563262499998,-0.04581243255879
4.8265306122449,11.5138127275204,609.57744014345,598.063627415929,0.156330436975763,-0.378079411322686
4.85834333733493,11.6715507520331,609.57744014345,597.905889391417,0.156361278970059,-0.710433309656269
4.89015606242497,11.831051220199,609.57744014345,597.746388923251,0.156419038420797,-1.04286767519833
4.92196878751501,11.9923300169895,609.57744014345,597.58511012646,0.156503747544326,-1.3753757665499
4.95378151260504,12.1553863427279,609.57744014345,597.422053800722,0.156615212268672,-1.7079506224928
4.98559423769508,12.3202019881553,609.57744014345,597.257238155295,0.156753016983586,-2.04058513220072
5.01740696278511,12.4867407226806,609.57744014345,597.090699420769,0.156916530113997,-2.37327210593249
5.04921968787515,12.6549478035824,609.57744014345,596.922492339867,0.157104910537913,-2.70600434567963
5.08103241296519,12.8247496144771,609.57744014345,596.752690528973,0.157317114880493,-3.03877471523221
5.11284513805522,12.9960534416982,609.57744014345,596.581386701752,0.157551905722913,2.91160909805414
5.14465786314526,13.1687473973783,609.57744014345,596.408692746072,0.157807860767943,2.57878328724246
5.17647058823529,13.3427004978847,609.57744014345,596.234739645565,0.158083383003708,2.24593970375888
5.20828331332533,13.5177629058438,609.57744014345,596.059677237606,0.158376711903141,1.91308456619851
5.24009603841537,13.6937663432589,609.57744014345,595.883673800191,0.158685935689189,1.58022370815115
5.2719087635054,13.8705246821357,609.57744014345,595.706915461314,0.159009004684903,1.2473625224009
5.30372148859544,14.0478347176108,609.57744014345,595.529605425839,0.159343745753615,0.914505909072788
5.33553421368547,14.22547712678,609.57744014345,595.35196301667,0.159687877817302,0.581658228080814
5.36734693877551,14.4032176142811,609.57744014345,595.174222529169,0.160039028421596,0.248823256189571
5.39915966386555,14.5808082432115,609.57744014345,594.996631900238,0.160394751293911,-0.0839958510393043
5.43097238895558,14.7579889471763,609.57744014345,594.819451196274,0.16075254481731,-0.416796592186231
5.46278511404562,14.93448921622,609.57744014345,594.64295092723,0.161109871317566,-0.749577147607701
5.49459783913565,15.1100299461663,609.57744014345,594.467410197284,0.161464177035079,-1.0823364016124
5.52641056422569,15.284325437514,609.57744014345,594.293114705936,0.161812912627561,-1.41507395906142
5.55822328931573,15.4570855266368,609.57744014345,594.120354616813,0.16215355402443,-1.74779015630727
5.59003601440576,15.628017828688,609.57744014345,593.949422314762,0.162483623430763,-2.08048606641698
5.6218487394958,15.7968300684142,609.57744014345,593.780610075036,0.162800710257998,-2.41316349865257
5.65366146458583,15.9632324721639,609.57744014345,593.614207671286,0.163102491741538,-2.74582499221016
5.68547418967587,16.1269401918372,609.57744014345,593.450499951613,0.163386752992731,-3.07847380424443
5.71728691476591,16.2876757294581,609.57744014345,593.289764413992,0.163651406225053,2.87207141494712
5.74909963985594,16.4451713295749,609.57744014345,593.132268813875,0.16389450889261,2.53943541642195
5.78091236494598,16.5991713058863,609.57744014345,592.978268837564,0.164114280483561,2.20679822435676
5.81272509003601,16.7494342683897,609.57744014345,592.82800587506,0.164309117722058,1.87415394134676
5.84453781512605,16.8957352180507,609.57744014345,592.681704925399,0.164477607950068,1.54149609476158
5.87635054021609,17.0378674774443,609.57744014345,592.539572666006,0.164618540484392,1.20881768087245
5.90816326530612,17.1756444280751,609.57744014345,592.401795715375,0.164730915774229,0.876111213685341
5.93997599039616,17.3089010280544,609.57744014345,592.268539115395,0.164813952219802,0.543368778194333
5.97178871548619,17.4374950874579,609.57744014345,592.139945055992,0.164867090551954,0.210582087727922
6.00360144057623,17.5613082829094,609.57744014345,592.01613186054,0.164889995715177,-0.122257454983219
6.03541416566627,17.6802468976033,609.57744014345,591.897193245847,0.164882556240829,-0.45515869343276
6.0672268907563,17.7942422779937,609.57744014345,591.783197865456,0.164844881142142,-0.788130650120253
6.09903961584634,17.903251003557,609.57744014345,591.674189139893,0.164777294406464,-1.1211824569923
6.13085234093637,18.0072547712748,609.57744014345,591.570185372175,0.16468032720192,-1.45432328409008
6.16266506602641,18.1062600015927,609.57744014345,591.471180141857,0.164554707953874,-1.78756226699028
6.19447779111645,18.2002971774996,609.57744014345,591.37714296595,0.164401350480474,-2.12090843366151
6.22629051620648,18.2894199328858,609.57744014345,591.288020210564,0.164221340405147,-2.45437063139065
6.25810324129652,18.3737039103572,609.57744014345,591.203736233093,0.164015920086719,-2.78795745445856
6.28991596638655,18.4532454121904,609.57744014345,591.124194731259,0.16378647232457,-3.12167717326359
6.32172869147659,18.528159870939,609.57744014345,591.049280272511,0.163534503106699,2.82764764157717
6.35354141656663,18.5985801684171,609.57744014345,590.978859975033,0.163261623673119,2.49363895635986
6.38535414165666,18.6646548332808,609.57744014345,590.912785310169,0.162969532165741,2.15947517964918
6.4171668667467,18.7265461482774,609.57744014345,590.850893995172,0.162659995129548,1.82514999158061
6.44897959183673,18.7844281983998,609.57744014345,590.79301194505,0.162334829118806,1.49065770414918
6.48079231692677,18.8384848907504,609.57744014345,590.738955252699,0.161995882647126,1.15599330879627
6.51260504201681,18.8889079759036,609.57744014345,590.688532167546,0.161645018701962,0.821152517919645
6.54441776710684,18.9358950990359,609.57744014345,590.641545044414,0.161284098023255,0.486131799821229
6.57623049219688,18.9796479071111,609.57744014345,590.597792236339,0.160914963323117,0.150928406689945
6.60804321728691,19.0203702360625,609.57744014345,590.557069907387,0.16053942459912,-0.184459604688699
6.63985594237695,19.0582663992138,609.57744014345,590.519173744236,0.160159245668472,-0.520033359699464
6.67166866746699,19.0935395952902,609.57744014345,590.48390054816,0.159776132024562,-0.855793160228991
