k,deltaD,D_base,D_harmonic,amplitude,phase
0.5,1.0118871818659727,1011.9344557792955,1010.9225685974295,2.1979035015377066,-0.23106819638214443
0.531812725090036,1.0095099404320536,1011.9344557792955,1010.9249458388634,1.823644744080411,-0.5462598962982868
0.563625450180072,1.007023384359286,1011.9344557792955,1010.9274323949362,1.529304216688122,-0.8615810585640048
0.595438175270108,1.0044343419452844,1011.9344557792955,1010.9300214373502,1.2946593155202437,-1.177041615165416
0.6272509003601441,1.0017500787623703,1011.9344557792955,1010.9327057005331,1.1053280273475274,-1.492651919307667
0.65906362545018,0.9989783046595448,1011.9344557792955,1010.935477474636,0.950892257683043,-1.8084227810113724
0.690876350540216,0.9961271811824872,1011.9344557792955,1010.938328598113,0.8236798038209552,-2.1243655048612213
0.7226890756302521,0.9932053294111256,1011.9344557792955,1010.9412504498844,0.7179559285432073,-2.440491930074594
0.7545018007202882,0.9902218382225101,1011.9344557792955,1010.944233941073,0.62937587337158,-2.756814473037732
0.7863145258103241,0.9871862729766008,1011.9344557792955,1010.9472695063189,0.5546072607113803,-3.0733461724769904
0.8181272509003601,0.9841086846389544,1011.9344557792955,1010.9503470946565,0.4910653086651951,2.8930845697637557
0.8499399759903962,0.9809996193354209,1011.9344557792955,1010.9534561599601,0.4367243164723982,2.576092709110484
0.8817527010804321,0.9778701283455575,1011.9344557792955,1010.9565856509499,0.3899815704295357,2.258848347369901
0.9135654261704682,0.9747317785397627,1011.9344557792955,1010.9597240007557,0.34955782675560537,1.9413354468532074
0.9453781512605042,0.9715966632611526,1011.9344557792955,1010.9628591160343,0.3144236744668672,1.6235370771208792
0.9771908763505401,0.9684774136550232,1011.9344557792955,1010.9659783656405,0.2837444471046925,1.305435351217867
1.0090036014405763,0.965387210449876,1011.9344557792955,1010.9690685688456,0.2568385887661203,0.9870113585813342
1.0408163265306123,0.9623397961862565,1011.9344557792955,1010.9721159831092,0.23314588826282925,0.6682450946961194
1.0726290516206483,0.9593494879028412,1011.9344557792955,1010.9751062913926,0.21220302655155943,0.34911538765914224
1.1044417767106842,0.9564311902704503,1011.9344557792955,1010.978024589025,0.19362459684372496,0.029599821936972977
1.1362545018007202,0.9536004091798986,1011.9344557792955,1010.9808553701156,0.17708825741121395,-0.29032534024786333
1.1680672268907561,0.9508732657756127,1011.9344557792955,1010.9835825135199,0.16232303193121475,-0.6106852392767914
1.1998799519807923,0.9482665109354684,1011.9344557792955,1010.98618926836,0.149100026374308,-0.9315064993693859
1.2316926770708283,0.9457975401926433,1011.9344557792955,1010.9886582391028,0.13722501529314882,-1.252817309520146
1.2635054021608643,0.9434844090860679,1011.9344557792955,1010.9909713702094,0.12653248461400116,-1.5746475025906148
1.2953181272509005,0.9413458489372033,1011.9344557792955,1010.9931099303583,0.11688081692165643,-1.897028630544559
1.3271308523409364,0.9394012830401834,1011.9344557792955,1010.9950544962553,0.10814837867290235,-2.21999403325169
1.3589435774309724,0.9376708432500891,1011.9344557792955,1010.9967849360454,0.10023032375823399,-2.543578897598959
1.3907563025210083,0.93617538695446,1011.9344557792955,1010.998280392341,0.09303596929976347,-2.867820302823806
1.4225690276110443,0.9349365144092872,1011.9344557792955,1010.9995192648862,0.08648663106922672,3.090428060173918
1.4543817527010803,0.9339765864126548,1011.9344557792955,1011.0004791928828,0.08051382999447108,2.7647546586832736
1.4861944777911165,0.9333187422953415,1011.9344557792955,1011.0011370370001,0.07505779975472965,2.43830199244645
1.5180072028811524,0.9329869181937056,1011.9344557792955,1011.0014688611018,0.07006623981246893,2.11102543782868
1.5498199279711884,0.9330058655631319,1011.9344557792955,1011.0014499137324,0.06549326939981223,1.782878680378921
1.5816326530612244,0.9334011699030498,1011.9344557792955,1011.0010546093924,0.0612985467213284,1.453813905349943
1.6134453781512605,0.9341992696355419,1011.9344557792955,1011.00025650966,0.05744652451465514,1.1237820679477266
1.6452581032412965,0.935427475087522,1011.9344557792955,1010.999028304208,0.053905818548461645,0.7927332598239396
1.6770708283313325,0.9371139875139534,1011.9344557792955,1010.9973417917815,0.05064866995608204,0.4606171900700131
1.7088835534213684,0.9392879180937825,1011.9344557792955,1010.9951678612017,0.04765048574718186,0.12738380029436355
1.7406962785114046,0.9419793068200306,1011.9344557792955,1010.9924764724755,0.04488944459823446,-0.20701596606311165
1.7725090036014406,0.9452191411941158,1011.9344557792955,1010.9892366381014,0.04234615724146522,-0.5426292206407135
1.8043217286914766,0.9490393746292511,1011.9344557792955,1010.9854164046662,0.0400033725657389,-0.8794999961032121
1.8361344537815125,0.953472944445025,1011.9344557792955,1010.9809828348505,0.03784572200223114,-1.2176679086810198
1.8679471788715485,0.9585537893385663,1011.9344557792955,1010.9759019899569,0.03585949596543046,-1.557166612683906
1.8997599039615847,0.9643168661882555,1011.9344557792955,1010.9701389131072,0.034032447114939315,-1.8980220539889747
1.9315726290516206,0.9707981660347968,1011.9344557792955,1010.9636576132607,0.03235361604494771,-2.2402505454361172
1.9633853541416566,0.9780347290769669,1011.9344557792955,1010.9564210502185,0.03081317573573327,-2.583856707516084
1.9951980792316926,0.9860646584852475,1011.9344557792955,1010.9483911208102,0.02940229174891298,-2.928831342296944
2.0270108043217285,0.9949271328245004,1011.9344557792955,1010.939528646471,0.028112995740378503,3.008035971234175
2.0588235294117645,1.0046624168651306,1011.9344557792955,1010.9297933624304,0.026938070419904113,2.6604175941011436
2.090636254501801,1.0153118705092083,1011.9344557792955,1010.9191439087863,0.025870944612630294,2.311561316258641
2.1224489795918364,1.0269179555712071,1011.9344557792955,1010.9075378237243,0.02490559757295872,1.9615503090387054
2.154261704681873,1.0395242400913958,1011.9344557792955,1010.8949315392041,0.0240364721529339,1.6104889802171127
2.186074429771909,1.053175399847646,1011.9344557792955,1010.8812803794478,0.023258396812054757,1.258502734477379
2.2178871548619448,1.067917216702881,1011.9344557792955,1010.8665385625926,0.02256651674425082,0.9057368283990881
2.2496998799519807,1.0837965733702504,1011.9344557792955,1010.8506592059252,0.02195623456014828,0.5523542601261285
2.2815126050420167,1.1008614441703912,1011.9344557792955,1010.8335943351251,0.021423160975523808,0.198532710587891
2.3133253301320527,1.1191608812947607,1011.9344557792955,1010.8152948980007,0.020963075812012465,-0.15553935966977647
2.3451380552220886,1.1387449960520826,1011.9344557792955,1010.7957107832434,0.020571899327377036,-0.5096672680374092
2.376950780312125,1.159664934548232,1011.9344557792955,1010.7747908447473,0.020245673497490187,-0.8636550603810459
2.4087635054021606,1.1819728471753024,1011.9344557792955,1010.7524829321202,0.01998055242805828,-1.2173105484743505
2.440576230492197,1.2057218512735517,1011.9344557792955,1010.7287339280219,0.01977280064910462,-1.5704501182133725
2.472388955582233,1.2309659862544322,1011.9344557792955,1010.7034897930411,0.019618797704667092,-1.9229030190135825
2.504201680672269,1.2577601604406254,1011.9344557792955,1010.6766956188549,0.01951504724388668,-2.274514902996075
2.536014405762305,1.2861600888260227,1011.9344557792955,1010.6482956904695,0.019458188772520917,-2.625150462270937
2.567827130852341,1.3162222209095944,1011.9344557792955,1010.6182335583859,0.019445010332901712,-2.9746951007602487
2.599639855942377,1.348003657715708,1011.9344557792955,1010.5864521215798,0.019472460618153466,2.9601296465062052
2.6314525810324128,1.3815620570634337,1011.9344557792955,1010.552893722232,0.019537659349941748,2.6130250144370586
2.6632653061224487,1.4169555261231608,1011.9344557792955,1010.5175002531723,0.01963790510955821,2.267227699567806
2.695078031212485,1.4542425002456412,1011.9344557792955,1010.4802132790498,0.019770680165231123,1.9227700354705908
2.726890756302521,1.4934816070528996,1011.9344557792955,1010.4409741722426,0.019933652150083036,1.5796670906571133
2.758703481392557,1.5347315147473637,1011.9344557792955,1010.3997242645481,0.02012467269436358,1.237918687385316
2.790516206482593,1.578050763612623,1011.9344557792955,1010.3564050156829,0.02034177329449109,0.8975115111539015
2.822328931572629,1.6234975797000288,1011.9344557792955,1010.3109581995955,0.020583158812407697,0.5584212001842278
2.854141656662665,1.6711296697409352,1011.9344557792955,1010.2633261095546,0.02084719905099033,0.22061433222063204
2.885954381752701,1.7210039964078305,1011.9344557792955,1010.2134517828877,0.02113241885738153,-0.11594974769054944
2.917767106842737,1.7731765331488987,1011.9344557792955,1010.1612792461466,0.021437487179517618,-0.451317292008043
2.949579831932773,1.827701997987674,1011.9344557792955,1010.1067537813078,0.02176120545403516,-0.7855387232617002
2.9813925570228093,1.8846335658788576,1011.9344557792955,1010.0498222134166,0.022102495646283034,-1.1186674156427463
3.013205282112845,1.9440225594747744,1011.9344557792955,1009.9904332198207,0.022460388202988627,-1.4507586770779495
3.045018007202881,2.005918118503132,1011.9344557792955,1009.9285376607924,0.02283401012054658,-1.781868916918532
3.076830732292917,2.0703668483682804,1011.9344557792955,1009.8640889309272,0.023222573280213394,-2.1120549808091815
3.108643457382953,2.1374124490956774,1011.9344557792955,1009.7970433301998,0.023625363157466408,-2.4413736328137223
3.140456182472989,2.2070953263752244,1011.9344557792955,1009.7273604529203,0.02404172797703256,-2.769881164853206
3.172268907563025,2.279452187185143,1011.9344557792955,1009.6550035921103,0.024471068357533442,-3.097633114462568
3.204081632653061,2.3545156233590205,1011.9344557792955,1009.5799401559365,0.024912827469769246,2.8585012337740823
3.235894357743097,2.432313687493547,1011.9344557792955,1009.5021420918019,0.025366481719603887,2.532097735667097
3.2677070828331334,2.512869466775328,1011.9344557792955,1009.4215863125202,0.02583153195944327,2.206289285152824
3.2995198079231693,2.596200661672242,1011.9344557792955,1009.3382551176232,0.026307495230535,1.8810245905661
3.3313325330132053,2.682319177993122,1011.9344557792955,1009.2521366013024,0.02679389704112849,1.556253447249302
3.3631452581032413,2.7712307425480276,1011.9344557792955,1009.1632250367475,0.02729026419223265,1.2319266719600375
3.3949579831932772,2.862934554574508,1011.9344557792955,1009.071521224721,0.027796118172773863,0.9079960134356638
3.426770708283313,2.9574229872113165,1011.9344557792955,1008.9770327920842,0.028310969158984633,0.5844140451382532
3.458583433373349,3.0546813555631616,1011.9344557792955,1008.8797744237323,0.028834310668366024,0.26113404525234224
3.490396158463385,3.1546877703093514,1011.9344557792955,1008.7797680089861,0.029365614936268703,-0.06189013175343984
3.522208883553421,3.257413098299253,1011.9344557792955,1008.6770426809962,0.029904329102586266,-0.38470418827215214
3.554021608643457,3.362821054079518,1011.9344557792955,1008.571634725216,0.030449872316827536,-0.7073535181012315
3.5858343337334935,3.470868448744568,1011.9344557792955,1008.4635873305509,0.031001633891384228,-1.029883339337901
3.6176470588235294,3.5815056247548682,1011.9344557792955,1008.3529501545406,0.031558972654479406,-1.3523388227100344
3.6494597839135654,3.694677107307598,1011.9344557792955,1008.2397786719879,0.032121217675176145,-1.6747652124203516
3.6812725090036014,3.8103225042881377,1011.9344557792955,1008.1241332750074,0.032687670551921254,-1.9972079364563318
3.7130852340936373,3.928377687592956,1011.9344557792955,1008.0060780917025,0.033257609472011104,-2.319712703075139
3.7448979591836733,4.048776288453723,1011.9344557792955,1007.8856794908418,0.03383029526052577,-2.642325579822867
3.7767106842737093,4.1714515380699595,1011.9344557792955,1007.7630042412255,0.034404979641737075,-2.965093050994696
3.8085234093637452,4.296338482110627,1011.9344557792955,1007.6381172971849,0.03498091593157062,2.995123258281493
3.840336134453781,4.423376593180137,1011.9344557792955,1007.5110791861154,0.03555737236390318,2.671905353521825
3.8721488595438176,4.552512798957082,1011.9344557792955,1007.3819429803384,0.036133648223634386,2.348390751561085
3.9039615846338536,4.683704935088258,1011.9344557792955,1007.2507508442072,0.03670909291280626,2.0245313334911574
3.9357743097238895,4.816925620995789,1011.9344557792955,1007.1175301582997,0.037283128009820414,1.7002787849180168
3.9675870348139255,4.952166543340695,1011.9344557792955,1006.9822892359548,0.037855272293558555,1.3755847884579688
3.9993997599039615,5.089443116076495,1011.9344557792955,1006.845012663219,0.03842516959200547,1.0504012841435986
4.031212484993997,5.228799467959675,1011.9344557792955,1006.7056563113358,0.038992619177699424,0.7246808064787321
4.063025210084033,5.3703136884061,1011.9344557792955,1006.5641420908894,0.03955760827019506,0.39837690675540743
4.09483793517407,5.51410324122628,1011.9344557792955,1006.4203525380692,0.040120346020526707,0.07144466858858099
4.126650660264105,5.660330433754893,1011.9344557792955,1006.2741253455406,0.040681298148448126,-0.25615867675192155
4.158463385354142,5.809207807145299,1011.9344557792955,1006.1252479721502,0.04124122118660137,-0.5844730309327891
4.190276110444177,5.961003293216777,1011.9344557792955,1005.9734524860787,0.0418011950664005,-0.9135346042331656
4.222088835534214,6.116044965402693,1011.9344557792955,1005.8184108138928,0.0423626525713056,-1.2433749902459037
4.25390156062425,6.2747251973854645,1011.9344557792955,1005.65973058191,0.04292740400066659,-1.5740201498102635
4.285714285714286,6.437504034087965,1011.9344557792955,1005.4969517452075,0.04349765525102574,-1.905489322183409
4.317527010804321,6.604911576981863,1011.9344557792955,1005.3295442023136,0.0440760174536444,-2.2377938906823163
4.3493397358943575,6.7775491900451925,1011.9344557792955,1005.1569065892503,0.04466550633019683,-2.570936240340444
4.381152460984394,6.956089344672023,1011.9344557792955,1004.9783664346235,0.04526952956520649,-2.9049086559026915
4.4129651860744294,7.1412739415801525,1011.9344557792955,1004.7931818377153,0.045891860762305586,3.0434929884005952
4.444777911164466,7.3339109749049385,1011.9344557792955,1004.6005448043906,0.046536598962828135,2.707928837058426
4.476590636254501,7.534869437378234,1011.9344557792955,1004.3995863419173,0.047208113259454516,2.3716274947267544
4.508403361344538,7.745072404524876,1011.9344557792955,1004.1893833747706,0.04791097271938897,2.034645084533847
4.540216086434573,7.965488278434464,1011.9344557792955,1003.968967500861,0.048649862607901766,1.697050464162765
4.57202881152461,8.197120216060284,1011.9344557792955,1003.7373355632352,0.049429488722415794,1.35892470327278
4.603841536614646,8.440993811064118,1011.9344557792955,1003.4934619682314,0.050254472441856254,1.0203600971077496
4.635654261704682,8.698143140087154,1011.9344557792955,1003.2363126392083,0.05112923978741584,0.6814587117363128
4.667466986794718,8.969595322316081,1011.9344557792955,1002.9648604569794,0.0520579083000615,0.3423304888241006
4.699279711884754,9.256353774037848,1011.9344557792955,1002.6781020052576,0.05304417579887643,0.0030909717921438528
4.73109243697479,9.559380366876553,1011.9344557792955,1002.3750754124189,0.05409121504802298,-0.33614125324086236
4.7629051620648255,9.87957671940012,1011.9344557792955,1002.0548790598954,0.05520157801766947,-0.6752472832407225
4.794717887154862,10.217764867345522,1011.9344557792955,1001.71669091195,0.05637711280336382,-1.0141106570716045
4.826530612244897,10.574667568851737,1011.9344557792955,1001.3597882104438,0.057618895433830176,-1.3526200105139183
4.858343337334934,10.95088850928471,1011.9344557792955,1000.9835672700108,0.05892717784223619,-1.6906715000501618
4.89015606242497,11.346892677380765,1011.9344557792955,1000.5875631019147,0.06030135230796743,-2.0281708885470597
4.921968787515006,11.762987192206424,1011.9344557792955,1000.1714685870891,0.06173993179973134,-2.365035214817919
4.953781512605042,12.199302870730321,1011.9344557792955,999.7351529085652,0.06324054495320822,-2.701194002359748
4.985594237695078,12.655776839836335,1011.9344557792955,999.2786789394592,0.06479994395492868,-3.0365899962614566
5.017406962785114,13.132136515243587,1011.9344557792955,998.8023192640519,0.06641402340155264,2.9120058594186533
5.04921968787515,13.627885292977112,1011.9344557792955,998.3065704863184,0.0680778482496804,2.5782533166495734
5.081032412965186,14.142290325905606,1011.9344557792955,997.7921654533899,0.0697856892277311,2.245355137161035
5.112845138055222,14.674372786461277,1011.9344557792955,997.2600829928342,0.07153106449174518,1.9133166103869617
5.144657863145258,15.222901044105697,1011.9344557792955,996.7115547351898,0.0733067868056815,1.5821318097671506
5.176470588235294,15.78638720840138,1011.9344557792955,996.1480685708941,0.07510501604783917,1.2517846738788192
5.20828331332533,16.36308750098783,1011.9344557792955,995.5713682783077,0.07691731732829864,0.9222501563375397
5.240096038415366,16.95100691692801,1011.9344557792955,994.9834488623675,0.07873472539732088,0.59349539095353
5.271908763505402,17.54790861218828,1011.9344557792955,994.3865471671072,0.08054781629288109,0.2654808294550624
5.303721488595438,18.151328404027026,1011.9344557792955,993.7831273752685,0.08234678729045544,-0.0618386801017295
5.335534213685474,18.758594690192695,1011.9344557792955,993.1758610891028,0.08412154616540182,-0.38851289611374284
5.36734693877551,19.366853977840606,1011.9344557792955,992.5676018014549,0.08586181055467228,-0.7145952805595063
5.399159663865546,19.973102062872158,1011.9344557792955,991.9613537164233,0.08755721781825088,-1.0401421964150583
5.430972388955582,20.574220716577543,1011.9344557792955,991.360235062718,0.0891974452704036,-1.365212205614355
5.4627851140456185,21.167019523771614,1011.9344557792955,990.7674362555239,0.09077234000595986,-1.6898654635639556
5.494597839135654,21.74828228339743,1011.9344557792955,990.1861734958981,0.09227205682694495,-2.0141632032392587
5.52641056422569,22.314817140487662,1011.9344557792955,989.6196386388078,0.0936872020282431,-2.3381672999648826
5.558223289315726,22.863509382122288,1011.9344557792955,989.0709463971732,0.09500898008279716,-2.661939906906445
5.590036014405762,23.391375616455093,1011.9344557792955,988.5430801628404,0.09622933963583336,-2.9855431508784305
5.621848739495798,23.89561788052822,1011.9344557792955,988.0388378987673,0.09734111473154308,2.9741464290517334
5.653661464585834,24.373676106314406,1011.9344557792955,987.5607796729811,0.09833815690640213,2.6506968670395246
5.68547418967587,24.82327732931583,1011.9344557792955,987.1111784499797,0.09921545373096871,2.3272327970721642
5.717286914765906,25.24248005990512,1011.9344557792955,986.6919757193904,0.09996922959006212,2.0036943857707117
5.749099639855943,25.629712358323673,1011.9344557792955,986.3047434209718,0.10059702496234962,1.6800227869879893
5.780912364945978,25.983802357042123,1011.9344557792955,985.9506534222534,0.10109775117473152,1.3561602823069798
5.812725090036015,26.304000249191517,1011.9344557792955,985.630455530104,0.10147171852236928,1.0320504211288388
5.84453781512605,26.589991092888454,1011.9344557792955,985.344464686407,0.10172063670087235,0.7076381662591875
5.8763505402160865,26.84189814730985,1011.9344557792955,985.0925576319856,0.1018475876187441,0.38287005037350325
5.908163265306122,27.060276833231,1011.9344557792955,984.8741789460645,0.10185697176546575,0.05769434827473626
5.939975990396158,27.24609977368698,1011.9344557792955,984.6883560056085,0.10175443032568846,-0.2679387305826765
5.971788715486194,27.400733696453244,1011.9344557792955,984.5337220828422,0.10154674608488311,-0.5940768252787741
6.00360144057623,27.525909250100426,1011.9344557792955,984.4085465291951,0.10124172681508273,-0.9207651788195014
6.035414165666267,27.62368498582589,1011.9344557792955,984.3107707934696,0.10084807523005439,-1.2480463628774212
