k,deltaD,D_base,D_harmonic,amplitude,phase
0.5,0.32438899694142265,488.29659112776136,487.97220213081994,1.9171762681902529,2.7912926430927567
0.531812725090036,0.3232932670129003,488.29659112776136,487.97329786074846,1.5984910262242467,2.4694548973062793
0.563625450180072,0.3221298466845042,488.29659112776136,487.97446128107686,1.3474442556226138,2.147667923610334
0.595438175270108,0.32089872214106663,488.29659112776136,487.9756924056203,1.1469638994281062,1.825934577758427
0.6272509003601441,0.3195998812877292,488.29659112776136,487.97699124647363,0.9849020789259767,1.504257688969752
0.65906362545018,0.3182333142147513,488.29659112776136,487.9783578135466,0.8524541021721165,1.182640060466852
0.690876350540216,0.31679901370023344,488.29659112776136,487.9797921140611,0.7431320664644055,0.8610844701650053
0.7226890756302521,0.31529697574978854,488.29659112776136,487.98129415201157,0.6520834264775746,0.5395936715719145
0.7545018007202882,0.31372720017770916,488.29659112776136,487.98286392758365,0.5756293738300632,0.21817039492627358
0.7863145258103241,0.31208969123116503,488.29659112776136,487.9845014365302,0.5109463613955766,-0.10318265138193794
0.8181272509003601,0.3103844582587385,488.29659112776136,487.9862066695026,0.4558427038641255,-0.42446277909614266
0.8499399759903962,0.3086115164272769,488.29659112776136,487.9879796113341,0.4085994737306505,-0.7456673180703433
0.8817527010804321,0.3067708874897903,488.29659112776136,487.98982024027157,0.3678555987520063,-1.0667936139199679
0.9135654261704682,0.3048626006063273,488.29659112776136,487.99172852715503,0.3325238098042208,-1.3878390253252497
0.9453781512605042,0.3028866932227743,488.29659112776136,487.9937044345386,0.3017284230341145,-1.7088009209857775
0.9771908763505401,0.3008432120078055,488.29659112776136,487.99574791575355,0.2747587757735844,-2.0296766762021607
1.0090036014405763,0.29873221385724946,488.29659112776136,487.9978589139041,0.2510340202343505,-2.350463669070776
1.0408163265306123,0.2965537669625178,488.29659112776136,488.00003736079884,0.23007625021248268,-2.6711592762759455
1.0726290516206483,0.2943079519545222,488.29659112776136,488.00228317580684,0.21148980537579543,-2.991760868460354
1.1044417767106842,0.29199486312194267,488.29659112776136,488.0045962646394,0.1949451998948435,2.970919502025165
1.1362545018007202,0.2896146097121459,488.29659112776136,488.0069765180492,0.18016654433581503,2.6505138779398445
1.1680672268907561,0.2871673173180511,488.29659112776136,488.0094238104433,0.16692162901515356,2.3302102462548215
1.1998799519807923,0.2846531293577641,488.29659112776136,488.0119379984036,0.15501405143671806,2.010011315976484
1.2316926770708283,0.28207220865084537,488.29659112776136,488.0145189191105,0.14427692557755925,1.6899198324150737
1.2635054021608643,0.2794247390997384,488.29659112776136,488.0171663886616,0.13456782409668577,1.3699385848555667
1.2953181272509005,0.276710927481588,488.29659112776136,488.0198802002798,0.1257646880271621,1.050070414849548
1.3271308523409364,0.27393100535743997,488.29659112776136,488.0226601224039,0.11776250053532651,0.7303182251701082
1.3589435774309724,0.27108523110729266,488.29659112776136,488.02550589665407,0.11047056777683281,0.4106849894791815
1.3907563025210083,0.2681738920977068,488.29659112776136,488.02841723566365,0.10381028491795354,0.09117376276132427
1.4225690276110443,0.2651973069917517,488.29659112776136,488.0313938207696,0.0977132920128227,-0.2282123074163934
1.4543817527010803,0.2621558282094725,488.29659112776136,488.0344352995519,0.09211994479252933,-0.5474699687480862
1.4861944777911165,0.259049844548656,488.29659112776136,488.0375412832127,0.08697804109851454,-0.8665958510617351
1.5180072028811524,0.25587978397675215,488.29659112776136,488.0407113437846,0.08224175583669668,-1.1855864521344572
1.5498199279711884,0.25264611660361425,488.29659112776136,488.04394501115775,0.07787074678985478,-1.5044381223536343
1.5816326530612244,0.2493493578472794,488.29659112776136,488.0472417699141,0.07382940103784436,-1.823147048116264
1.6134453781512605,0.24599007180523813,488.29659112776136,488.0506010559561,0.07008619757388053,-2.141709233844753
1.6452581032412965,0.2425688748434709,488.29659112776136,488.0540222529179,0.0666131663270716,-2.4601204824831457
1.6770708283313325,0.23908643941717855,488.29659112776136,488.0575046883442,0.06338542747866623,-2.778376374320186
1.7088835534213684,0.23554349813764475,488.29659112776136,488.0610476296237,0.06038079789868786,-3.0964722439667223
1.7406962785114046,0.2319408481002938,488.29659112776136,488.06465027966107,0.05757945388951989,2.8687821518866805
1.7725090036014406,0.22827935549082667,488.29659112776136,488.06831177227053,0.054963641325847044,2.5510214330717216
1.8043217286914766,0.22455996048455518,488.29659112776136,488.0720311672768,0.052517425821733105,2.2334364688460755
1.8361344537815125,0.2207836824591709,488.29659112776136,488.0758074453022,0.05022647680800761,1.9160331817833816
1.8679471788715485,0.21695162553737646,488.29659112776136,488.079639502224,0.04807788042601273,1.598817890658752
1.8997599039615847,0.21306498448058164,488.29659112776136,488.0835261432808,0.04605997698116024,1.2817973496055786
1.9315726290516206,0.20912505095395773,488.29659112776136,488.0874660768074,0.04416221938868206,0.9649787911264255
1.9633853541416566,0.20513322018223334,488.29659112776136,488.0914579075791,0.042375049611976315,0.6483699734106699
1.9951980792316926,0.2010909980225506,488.29659112776136,488.0955001297388,0.04068979056454097,0.33197923247595595
2.0270108043217285,0.1970000084731396,488.29659112776136,488.0995911192882,0.03909855133710759,0.01581553971737679
2.0588235294117645,0.192862001644869,488.29659112776136,488.1037291261165,0.03759414393720843,-0.3001114344712298
2.090636254501801,0.1886788622189215,488.29659112776136,488.10791226554244,0.036170010000632045,-0.6157912502479401
2.1224489795918364,0.18445261841640104,488.29659112776136,488.11213850934496,0.03482015616246226,-0.9312126201856601
2.154261704681873,0.18018545150493992,488.29659112776136,488.1164056762564,0.03353909696737074,-1.246363322467507
2.186074429771909,0.1758797058700452,488.29659112776136,488.1207114218913,0.032321804360974225,-1.5612301042972976
2.2178871548619448,0.17153789967585453,488.29659112776136,488.1250532280855,0.031163662941200217,-1.8757985742503607
2.2496998799519807,0.16716273614412103,488.29659112776136,488.12942839161724,0.030060430265250446,-2.190053082108298
2.2815126050420167,0.16275711547410765,488.29659112776136,488.13383401228725,0.029008201607104146,-2.503976584515408
2.3133253301320527,0.15832414743232448,488.29659112776136,488.13826698032904,0.028003378645694226,-2.817550494555273
2.3451380552220886,0.15386716463564198,488.29659112776136,488.1427239631257,0.02704264163705036,-3.130754513076795
2.376950780312125,0.14938973654886922,488.29659112776136,488.1472013912125,0.02612292468704767,2.8396188678905223
2.4087635054021606,0.14489568422135335,488.29659112776136,488.15169544354,0.025241393796474238,2.527223349385477
2.440576230492197,0.14038909577834602,488.29659112776136,488.156202031983,0.02439542739842273,2.2152709083478848
2.472388955582233,0.13587434268316656,488.29659112776136,488.1607167850782,0.023582599150752087,1.9037908391135068
2.504201680672269,0.13135609678079163,488.29659112776136,488.16523503098057,0.022800662784565894,1.5928153654261916
2.536014405762305,0.1268393481289536,488.29659112776136,488.1697517796324,0.02204753884432378,1.2823799845891435
2.567827130852341,0.12232942361464438,488.29659112776136,488.1742617041467,0.02132130318712262,0.9725238562119365
2.599639855942377,0.11783200634789637,488.29659112776136,488.17875912141346,0.02062017713866253,0.6632902414309804
2.6314525810324128,0.11335315581521854,488.29659112776136,488.18323797194614,0.019942519232108335,0.354726999079733
2.6632653061224487,0.10889932876312969,488.29659112776136,488.18769179899823,0.019286818484221927,0.04688714583352354
2.695078031212485,0.10447740076870105,488.29659112776136,488.19211372699266,0.018651689191295374,-0.26017051221853477
2.726890756302521,0.10009468844174307,488.29659112776136,488.1964964393196,0.018035867256303868,-0.5663806689312434
2.758703481392557,0.09575897218229557,488.29659112776136,488.20083215557906,0.017438208088700335,-0.871670720966871
2.790516206482593,0.09147851939684415,488.29659112776136,488.2051126083645,0.016857686150015948,-1.1759598776305888
2.822328931572629,0.08726210805696155,488.29659112776136,488.2093290197044,0.016293396252053477,-1.47915817309188
2.854141656662665,0.08311905045167123,488.29659112776136,488.2134720773097,0.015744556750058866,-1.7811653799762652
2.885954381752701,0.07905921695595453,488.29659112776136,488.2175319108054,0.015210514810296743,-2.081869829315379
2.917767106842737,0.07509305960843449,488.29659112776136,488.2214980681529,0.01469075396857166,-2.3811471514447238
2.949579831932773,0.07123163524079246,488.29659112776136,488.22535949252057,0.014184904230808735,-2.6788589672504814
2.9813925570228093,0.06748662787032345,488.29659112776136,488.22910449989104,0.013692754993963961,-2.9748515814143115
3.013205282112845,0.06387037000854434,488.29659112776136,488.2327207577528,0.013214271077224298,3.0142305452384304
3.045018007202881,0.06039586249090689,488.29659112776136,488.23619526527045,0.012749612136704459,2.722204570127703
3.076830732292917,0.05707679237099228,488.29659112776136,488.23951433539037,0.012299155671571816,2.43246170117856
3.108643457382953,0.053927548358672084,488.29659112776136,488.2426635794027,0.01186352368590262,2.1452258578168335
3.140456182472989,0.05096323321390628,488.29659112776136,488.24562789454745,0.011443612806048149,1.8607377663975995
3.172268907563025,0.04819967243173551,488.29659112776136,488.2483914553296,0.011040627210440386,1.5792521004190379
3.204081632653061,0.04565341847825266,488.29659112776136,488.2509377092831,0.010656113036290589,1.3010322607018596
3.235894357743097,0.043341749753494696,488.29659112776136,488.25324937800787,0.010291991908319333,1.026341919986022
3.2677070828331334,0.041282663377671724,488.29659112776136,488.2553084643837,0.009950589827677032,0.7554323438984579
3.2995198079231693,0.03949486080989573,488.29659112776136,488.25709626695146,0.009634655866694207,0.4885245271757245
3.3313325330132053,0.037997725227967294,488.29659112776136,488.2585934025334,0.009347363080406327,0.22578548635583778
3.3631452581032413,0.03681128952422341,488.29659112776136,488.25977983823714,0.00909228216413857,-0.032701198592083314
3.3949579831932772,0.035956193698268635,488.29659112776136,488.2606349340631,0.008873317412545085,-0.28696914196227
3.426770708283313,0.035453630374490785,488.29659112776136,488.26113749738687,0.008694595602805175,-0.5372037637117366
3.458583433373349,0.03532527713326772,488.29659112776136,488.2612658506281,0.008560302822271208,-0.7837719667919206
3.490396158463385,0.03559321432243223,488.29659112776136,488.2609979134389,0.008474472821407251,-1.0272391637967335
3.522208883553421,0.0362798270384701,488.29659112776136,488.2603113007229,0.008440742609644922,-1.2683656145283888
3.554021608643457,0.03740769000404498,488.29659112776136,488.2591834377573,0.008462103880859185,-1.5080764866421266
3.5858343337334935,0.03899943416985252,488.29659112776136,488.2575916935915,0.008540687543971144,-1.7474055510024722
3.6176470588235294,0.04107759401426847,488.29659112776136,488.2555135337471,0.008677618087150377,-1.9874196071565382
3.6494597839135654,0.04366443471593584,488.29659112776136,488.2529266930454,0.008872962633456525,-2.229136774022285
3.6812725090036014,0.04678175865672074,488.29659112776136,488.24980936910464,0.00912577940334121,-2.4734538232561003
3.7130852340936373,0.050450691062394526,488.29659112776136,488.24614043669897,0.009434249151078196,-2.7210947416477484
3.7448979591836733,0.05469144502535528,488.29659112776136,488.241899682736,0.009795858595482376,-2.972586190518969
3.7767106842737093,0.05952306667848006,488.29659112776136,488.2370680610829,0.010207600840746437,3.0549268197931063
3.8085234093637452,0.06496316189867457,488.29659112776136,488.2316279658627,0.010666163203249214,2.794919521055774
3.840336134453781,0.0710276066194524,488.29659112776136,488.2255635211419,0.011168083419989224,2.530568015704039
3.8721488595438176,0.0777302436047762,488.29659112776136,488.2188608841566,0.011709866278949129,2.2619732212179957
3.9039615846338536,0.08508256938250724,488.29659112776136,488.21150855837885,0.01228806128302208,1.9893130653652875
3.9357743097238895,0.09309341591574594,488.29659112776136,488.2034977118456,0.012899307065268116,1.7128140992042649
3.9675870348139255,0.10176863250063661,488.29659112776136,488.1948224952607,0.013540350340624738,1.432728966281685
3.9993997599039615,0.11111077426340898,488.29659112776136,488.18548035349795,0.014208047196565252,1.1493196284452978
4.031212484993997,0.12111880446309442,488.29659112776136,488.17547232329827,0.014899353462347434,0.8628456002011397
4.063025210084033,0.1317878185239465,488.29659112776136,488.1648033092374,0.015611309454610138,0.5735562084565041
4.09483793517407,0.14310879829281475,488.29659112776136,488.15348232946855,0.016341022983678746,0.2816859042861928
4.126650660264105,0.15506840536312438,488.29659112776136,488.14152272239824,0.017085653304464307,-0.012548218492336175
4.158463385354142,0.167648822390845,488.29659112776136,488.1289423053705,0.01784239775627942,-0.30894737633888025
4.190276110444177,0.18082765109141974,488.29659112776136,488.11576347666994,0.018608482136436413,-0.6073310365071668
4.222088835534214,0.19457787501733037,488.29659112776136,488.10201325274403,0.019381155346491697,-0.9075362216805881
4.25390156062425,0.20886789423474283,488.29659112776136,488.0877232335266,0.020157688487858552,-1.2094164445030582
4.285714285714286,0.22366163765167357,488.29659112776136,488.0729294901097,0.02093537832301407,-1.512840453788034
4.317527010804321,0.23891875700400078,488.29659112776136,488.05767237075736,0.021711554827615092,-1.8176909127631176
4.3493397358943575,0.25459490441471644,488.29659112776136,488.04199622334664,0.02248359241554651,-2.1238630860300978
4.381152460984394,0.2706420930844615,488.29659112776136,488.0259490346769,0.023248924309240238,-2.431263581594946
4.4129651860744294,0.28700913811445616,488.29659112776136,488.0095819896469,0.02400505944391414,-2.739809173742923
4.444777911164466,0.30364217183557685,488.29659112776136,487.9929489559258,0.024749601233075194,-3.049425718897732
4.476590636254501,0.320485225427376,488.29659112776136,487.976105902334,0.025480267482861724,2.9231381393564897
4.508403361344538,0.3374808662006785,488.29659112776136,487.9591102615607,0.026194910725100398,2.6115706350977783
4.540216086434573,0.3545708778057133,488.29659112776136,487.94202024995565,0.026891538244040385,2.299109527699828
4.57202881152461,0.3716969689448888,488.29659112776136,487.92489415881647,0.027568331100100367,1.9858015956449278
4.603841536614646,0.38880149500556627,488.29659112776136,487.9077896327558,0.028223661505135753,1.6716885918832796
4.635654261704682,0.40582817644900615,488.29659112776136,487.89076295131235,0.02885610797611948,1.3568078254269087
4.667466986794718,0.4227227978496444,488.29659112776136,487.8738683299117,0.029464467784912456,1.0411926838386787
4.699279711884754,0.43943387215159646,488.29659112776136,487.85715725560976,0.030047766327046012,0.7248731035927661
4.73109243697479,0.45591325597160903,488.29659112776136,487.84067787178975,0.030605263147351305,0.4078759946626432
4.7629051620648255,0.47211670355187607,488.29659112776136,487.8244744242095,0.031136454479568688,0.09022562502483493
4.794717887154862,0.4880043491545507,488.29659112776136,487.8085867786068,0.03164107227519952,-0.22805602991101986
4.826530612244897,0.5035411101662817,488.29659112776136,487.7930500175951,0.032119079808755155,-0.5469489685944037
4.858343337334934,0.5186970058227871,488.29659112776136,487.7778941219386,0.03257066404750293,-0.86643487162768
4.89015606242497,0.5334473891300036,488.29659112776136,487.76314373863136,0.032996225060217,-1.1864968339328252
4.921968787515006,0.5477730921351167,488.29659112776136,487.74881803562624,0.03339636280866835,-1.507119118215375
4.953781512605042,0.5616604870725155,488.29659112776136,487.73493064068884,0.03377186171624453,-1.8282869276606368
4.985594237695078,0.5751014679883042,488.29659112776136,487.72148965977306,0.03412367343988404,-2.149986196266383
5.017406962785114,0.5880933591858479,488.29659112776136,487.7084977685755,0.034452898285239134,-2.472203395643775
5.04921968787515,0.6006387581664967,488.29659112776136,487.69595236959486,0.03476076570227987,-2.794925357502108
5.081032412965186,0.6127453216898289,488.29659112776136,487.68384580607153,0.035048614281709,-3.1181391113728014
5.112845138055222,0.6244255041243036,488.29659112776136,487.67216562363706,0.035317871644299684,2.8413535697592134
5.144657863145258,0.6356962574454315,488.29659112776136,487.66089487031593,0.03557003457843824,2.517195072749339
5.176470588235294,0.646578702110503,488.29659112776136,487.65001242565086,0.035806649738635614,2.1925839039282535
5.20828331332533,0.6570977776321456,488.29659112776136,487.6394933501292,0.036029295172211304,1.8675335610781918
5.240096038415366,0.6672818810611716,488.29659112776136,487.6293092467002,0.03623956289503415,1.5420579249672453
5.271908763505402,0.6771625008101978,488.29659112776136,487.61942862695116,0.036439042692077726,1.2161713268826018
5.303721488595438,0.68677385237919,488.29659112776136,487.60981727538217,0.03662930727600884,0.8898885989209163
5.335534213685474,0.6961525216062796,488.29659112776136,487.6004386061551,0.03681189889813386,0.563225106739629
5.36734693877551,0.7053371201233745,488.29659112776136,487.591254007638,0.03698831747128261,0.23619676465956188
5.399159663865546,0.7143679567736854,488.29659112776136,487.5822231709877,0.03716001023384692,-0.0911799667478469
5.430972388955582,0.7232867278696062,488.29659112776136,487.57330439989175,0.03732836295814303,-0.41888810016625316
5.4627851140456185,0.73213622836073,488.29659112776136,487.56445489940063,0.03749469268410599,-0.7469101573845286
5.494597839135654,0.740960085249526,488.29659112776136,487.55563104251183,0.037660241940708473,-1.0752282203967929
5.52641056422569,0.7498025139477136,488.29659112776136,487.54678861381365,0.03782617440173801,-1.4038239963051335
5.558223289315726,0.758708097701458,488.29659112776136,487.5378830300599,0.03799357190926974,-1.7326788942392266
5.590036014405762,0.767721589742905,488.29659112776136,487.52886953801845,0.038163432786637794,-2.061774112197638
5.621848739495798,0.7768877374163026,488.29659112776136,487.51970339034506,0.03833667135272377,-2.391090731455413
5.653661464585834,0.786251127209141,488.29659112776136,487.5103400005522,0.0385141185404704,-2.7206098159847554
5.68547418967587,0.7958560493414097,488.29659112776136,487.50073507841995,0.03869652351461111,-3.050312514214808
5.717286914765906,0.8057463803653491,488.29659112776136,487.490844747396,0.038884556176624924,2.9030051467588414
5.749099639855943,0.8159654820548212,488.29659112776136,487.48062564570654,0.03907881043886976,2.5729909340946167
5.780912364945978,0.826556114747234,488.29659112776136,487.4700350130141,0.039279808144988576,2.2428481594627043
5.812725090036015,0.8375603632038064,488.29659112776136,487.45903076455755,0.03948800351009739,1.9125943653368418
5.84453781512605,0.849019573000362,488.29659112776136,487.447571554761,0.03970378795231188,1.5822465570014452
5.8763505402160865,0.8609742954213857,488.29659112776136,487.43561683234,0.03992749518698094,1.2518211388236449
5.908163265306122,0.873464238820759,488.29659112776136,487.4231268889406,0.04015940645683534,0.9213338631917377
5.939975990396158,0.886528224423671,488.29659112776136,487.4100629033377,0.04039975577521214,0.5907997929111096
5.971788715486194,0.9002041445726832,488.29659112776136,487.3963869831887,0.04064873506563645,0.26023327741030744
