"k","deltaD","D_base","D_harmonic","amplitude","phase"
0.5,3.69730261549353,1254.70516058742,1251.00785797193,1.05432033806178,-0.62536472808372
0.531812725090036,3.70681806479683,1254.70516058742,1250.99834252262,0.880262020924989,-0.967533355309806
0.563625450180072,3.71699895389588,1254.70516058742,1250.98816163353,0.743305341539797,-1.31009903261525
0.595438175270108,3.72785960767965,1254.70516058742,1250.97730097974,0.634082264725698,-1.65306133070061
0.627250900360144,3.7394152423492,1254.70516058742,1250.96574534507,0.545927346303429,-1.9964151459754
0.65906362545018,3.75168197536505,1254.70516058742,1250.95347861206,0.47400987933019,-2.34015043775851
0.690876350540216,3.7646768359059,1254.70516058742,1250.94048375152,0.414770502192866,-2.68425201559699
0.722689075630252,3.77841777583262,1254.70516058742,1250.92674281159,0.365547179452388,-3.02869939004663
0.754501800720288,3.79292368114966,1254.70516058742,1250.91223690627,0.32432184609453,2.90971860686838
0.786314525810324,3.80821438394719,1254.70516058742,1250.89694620347,0.28954562692165,2.56466257619804
0.81812725090036,3.82431067481775,1254.70516058742,1250.8808499126,0.260016243486821,2.21935427883485
0.849939975990396,3.84123431573516,1254.70516058742,1250.86392627169,0.234790711768431,1.87383518326341
0.881752701080432,3.85900805336632,1254.70516058742,1250.84615253405,0.213122300561726,1.52815143790908
0.913565426170468,3.87765563281596,1254.70516058742,1250.82750495461,0.194414422098384,1.18235342529195
0.945378151260504,3.89720181177199,1254.70516058742,1250.80795877565,0.178186506005865,0.836495210224398
0.97719087635054,3.91767237502836,1254.70516058742,1250.78748821239,0.164048464175926,0.490633892184414
1.00900360144058,3.93909414936707,1254.70516058742,1250.76606643805,0.151681388509628,0.144828876787699
1.04081632653061,3.96149501876107,1254.70516058742,1250.74366556866,0.140822821230483,-0.200858914349884
1.07262905162065,3.98490393987208,1254.70516058742,1250.72025664755,0.131255414583712,-0.546367872708438
1.10444177671068,4.00935095780096,1254.70516058742,1250.69580962962,0.122798127250472,-0.891636545999896
1.13625450180072,4.03486722205457,1254.70516058742,1250.67029336537,0.11529933650265,-1.23660446965357
1.16806722689076,4.06148500267932,1254.70516058742,1250.64367558474,0.108631409404883,-1.58121296156344
1.19987995198079,4.0892377065104,1254.70516058742,1250.61592288091,0.10268639407873,-1.92540585711458
1.23169267707083,4.11815989348383,1254.70516058742,1250.58700069394,0.0973725772376449,-2.26913016476463
1.26350540216086,4.14828729294368,1254.70516058742,1250.55687329448,0.0926117164383386,-2.61233662669883
1.2953181272509,4.17965681987585,1254.70516058742,1250.52550376755,0.0883368013676301,-2.95498017389451
1.32713085234094,4.21230659099183,1254.70516058742,1250.49285399643,0.0844902325794002,2.98616503723373
1.35894357743097,4.24627594057552,1254.70516058742,1250.45888464685,0.0810223316365391,2.64476416430085
1.39075630252101,4.28160543599961,1254.70516058742,1250.42355515142,0.0778901158862287,2.30403339858043
1.42256902761104,4.31833689280279,1254.70516058742,1250.38682369462,0.0750562857417821,1.96399871384062
1.45438175270108,4.35651338922116,1254.70516058742,1250.3486471982,0.0724883835436015,1.62468124182565
1.48619447779112,4.39617928003554,1254.70516058742,1250.30898130739,0.0701580916883792,1.28609741906109
1.51800720288115,4.43738020960473,1254.70516058742,1250.26778037782,0.068040644382222,0.948259198788132
1.54981992797119,4.48016312392588,1254.70516058742,1250.2249974635,0.0661143325591676,0.611174314328129
1.58163265306122,4.52457628155503,1254.70516058742,1250.18058430587,0.0643600855605892,0.274846580509371
1.61344537815126,4.57066926320431,1254.70516058742,1250.13449132422,0.0627611163560257,-0.0607237793465059
1.6452581032413,4.61849297981053,1254.70516058742,1250.08666760761,0.0613026195999447,-0.395539792149415
1.67707082833133,4.66809967885933,1254.70516058742,1250.03706090856,0.0599715138126116,-0.729607389280684
1.70888355342137,4.71954294871307,1254.70516058742,1249.98561763871,0.0587562205615671,-1.0629350645773
1.7406962785114,4.77287772069189,1254.70516058742,1249.93228286673,0.0576464747914993,-1.39553354271004
1.77250900360144,4.82816026860451,1254.70516058742,1249.87700031882,0.0566331614725441,-1.7274154630979
1.80432172869148,4.88544820543052,1254.70516058742,1249.81971238199,0.0557081745628995,-2.05859508311874
1.83613445378151,4.94480047679667,1254.70516058742,1249.76036011062,0.0548642949519695,-2.38908800315679
1.86794717887155,5.00627735088733,1254.70516058742,1249.69888323653,0.0540950845968623,-2.71891091497912
1.89975990396158,5.06994040437917,1254.70516058742,1249.63522018304,0.0533947945129023,-3.04808137406936
1.93157262905162,5.13585250396477,1254.70516058742,1249.56930808346,0.0527582846473714,2.90656771133006
1.96338535414166,5.20407778298954,1254.70516058742,1249.50108280443,0.0521809539703328,2.57864703199662
1.99519807923169,5.27468161268962,1254.70516058742,1249.43047897473,0.0516586793693506,2.25132287902759
2.02701080432173,5.3477305674769,1254.70516058742,1249.35743001994,0.0511877621457189,1.92457605235398
2.05882352941176,5.42329238367483,1254.70516058742,1249.28186820375,0.0507648810862664,1.59838728562689
2.0906362545018,5.50143591106144,1254.70516058742,1249.20372467636,0.0503870512329664,1.27273734595987
2.12244897959184,5.58223105652769,1254.70516058742,1249.12292953089,0.0500515875974661,0.947607117301427
2.15426170468187,5.66574871911439,1254.70516058742,1249.03941186831,0.049756073173198,0.622977669015164
2.18607442977191,5.7520607156348,1254.70516058742,1248.95309987179,0.0494983306872477,0.298830311192618
2.21788715486194,5.84123969603684,1254.70516058742,1248.86392089138,0.0492763976102232,-0.0248533618559214
2.24969987995198,5.93335904760897,1254.70516058742,1248.77180153981,0.0490885040071856,-0.348091438582695
2.28151260504202,6.0284927870764,1254.70516058742,1248.67666780034,0.0489330528680793,-0.670901666412327
2.31332533013205,6.12671543958368,1254.70516058742,1248.57844514784,0.0488086026034397,-0.993301436047727
2.34513805522209,6.22810190349583,1254.70516058742,1248.47705868393,0.0487138514317649,-1.31530777285052
2.37695078031213,6.332727299922,1254.70516058742,1248.3724332875,0.048647623419786,-1.63693733438381
2.40876350540216,6.44066680579294,1254.70516058742,1248.26449378163,0.0486088559668276,-1.95820641330929
2.4405762304922,6.55199546929953,1254.70516058742,1248.15316511812,0.0485965885502523,-2.27913094492984
2.47238895558223,6.66678800646173,1254.70516058742,1248.03837258096,0.0486099525711943,-2.59972651875959
2.50420168067227,6.78511857756553,1254.70516058742,1247.92004200986,0.04864816215899,-2.92000839358933
2.5360144057623,6.90706054221278,1254.70516058742,1247.79810004521,0.0487105058092714,3.04319379158808
2.56782713085234,7.03268619170672,1254.70516058742,1247.67247439571,0.048796338745024,2.72349476809977
2.59963985594238,7.16206645754778,1254.70516058742,1247.54309412987,0.0489050759023506,2.40406545757764
2.63145258103241,7.29527059485372,1254.70516058742,1247.40988999257,0.0490361854534494,2.08489171807931
2.66326530612245,7.43236583959037,1254.70516058742,1247.27279474783,0.0491891827887287,1.76595962425257
2.69507803121249,7.57341703864313,1254.70516058742,1247.13174354878,0.0493636248881812,1.44725543863492
2.72689075630252,7.71848625190114,1254.70516058742,1246.98667433552,0.0495591050193765,1.12876558139628
2.75870348139256,7.8676323257564,1254.70516058742,1246.83752826166,0.0497752477058305,0.810476598618384
2.79051620648259,8.02091043770224,1254.70516058742,1246.68425014972,0.0500117039152401,0.492375129173454
2.82232893157263,8.1783716120683,1254.70516058742,1246.52678897535,0.0502681464223056,0.17444787023783
2.85414165666266,8.3400622073907,1254.70516058742,1246.36509838003,0.0505442653056761,-0.143318458546646
2.8859543817527,8.50602337644227,1254.70516058742,1246.19913721098,0.0508397635431479,-0.460937152270265
2.91776710684274,8.67629050063874,1254.70516058742,1246.02887008678,0.0511543526736986,-0.778421559334748
2.94957983193277,8.85089260132941,1254.70516058742,1245.85426798609,0.0514877484994123,-1.09578512144936
2.98139255702281,9.0298517314427,1254.70516058742,1245.67530885598,0.0518396668049563,-1.41304141508794
3.01320528211285,9.21318235209287,1254.70516058742,1245.49197823533,0.0522098190771795,-1.73020419445625
3.04501800720288,9.40089070008275,1254.70516058742,1245.30426988734,0.0525979082127147,-2.04728743602067
3.07683073229292,9.59297415379524,1254.70516058742,1245.11218643363,0.0530036242073782,-2.36430538464572
3.10864345738295,9.78942060674649,1254.70516058742,1244.91573998067,0.0534266398277966,-2.68127260138055
3.14045618247299,9.99020786013398,1254.70516058742,1244.71495272729,0.0538666062732549,-2.99820401292074
3.17226890756303,10.1953030480406,1254.70516058742,1244.50985753938,0.0543231488443695,2.96807034442758
3.20408163265306,10.4046621115815,1254.70516058742,1244.30049847584,0.0547958626450869,2.65116404322502
3.2358943577431,10.6182293412169,1254.70516058742,1244.0869312462,0.0552843083557966,2.33424605356863
3.26770708283313,10.8359370096834,1254.70516058742,1243.86922357774,0.0557880081282519,2.01729945846655
3.29951980792317,11.057705121546,1254.70516058742,1243.64745546588,0.0563064416675917,1.70030670377476
3.33133253301321,11.2834413091568,1254.70516058742,1243.42171927826,0.0568390425832338,1.38324953985473
3.36314525810324,11.5130409088817,1254.70516058742,1243.19211967854,0.0573851951087569,1.06610896245882
3.39495798319328,11.7463872556252,1254.70516058742,1242.9587733318,0.0579442313111619,0.748865153279957
3.42677070828331,11.983352237999,1254.70516058742,1242.72180834942,0.0585154289319645,0.43149742073534
3.45858343337335,12.2237971606869,1254.70516058742,1242.48136342673,0.0590980100262133,0.113984141712745
3.49039615846339,12.4675739645782,1254.70516058742,1242.23758662284,0.0596911405903656,-0.203697294802298
3.52220888355342,12.7145268588358,1254.70516058742,1241.99063372859,0.0602939313954271,-0.521570541076801
3.55402160864346,12.964494421951,1254.70516058742,1241.74066616547,0.0609054402670002,-0.839660339553673
3.58583433373349,13.2173122307581,1254.70516058742,1241.48784835666,0.0615246760778613,-1.15799256563877
3.61764705882353,13.4728160769239,1254.70516058742,1241.2323445105,0.0621506047398802,-1.47659426228982
3.64945978391357,13.7308458292191,1254.70516058742,1240.9743147582,0.0627821574987737,-1.79549366394307
3.6812725090036,13.9912499964232,1254.70516058742,1240.713910591,0.0634182418451196,-2.11472020685946
3.71308523409364,14.2538910395735,1254.70516058742,1240.45126954785,0.0640577553556156,-2.43430452246428
3.74489795918367,14.5186514728916,1254.70516058742,1240.18650911453,0.0646996027668513,-2.75427840969953
3.77671068427371,14.7854407796644,1254.70516058742,1239.91971980776,0.0653427165563847,-3.07467478180884
3.80852340936375,15.0542031521557,1254.70516058742,1239.65095743527,0.0659860812592442,2.88765772483046
3.84033613445378,15.3249260429568,1254.70516058742,1239.38023454446,0.0666287616783171,2.56631364259135
3.87214885954382,15.5976494888328,1254.70516058742,1239.10751109859,0.0672699350509539,2.24444267934053
3.90396158463385,15.8724761371075,1254.70516058742,1238.83268445031,0.067908927108332,1.92200870343893
3.93577430972389,16.1495818691972,1254.70516058742,1238.55557871822,0.0685452518063935,1.59897532209021
3.96758703481393,16.4292268766558,1254.70516058742,1238.27593371077,0.0691786543163732,1.27530621755177
3.99939975990396,16.7117670029299,1254.70516058742,1237.99339358449,0.0698091566397957,0.950965555859585
4.031212484994,16.9976651203606,1254.70516058742,1237.70749546706,0.0704371049603962,0.62591847497627
4.06302521008403,17.2875022684404,1254.70516058742,1237.41765831898,0.0710632175697334,0.300131658120911
4.09483793517407,17.5819882381516,1254.70516058742,1237.12317234927,0.0716886319138614,-0.0264260038649694
4.12665066026411,17.8819712507479,1254.70516058742,1236.82318933667,0.0723149490188727,-0.353782660089515
4.15846338535414,18.1884463501806,1254.70516058742,1236.51671423724,0.0729442732812432,-0.68196266000719
4.19027611044418,18.5025621092257,1254.70516058742,1236.2025984782,0.0735792453767784,-1.01098563464478
4.22208883553421,18.8256252426786,1254.70516058742,1235.87953534474,0.0742230658754391,-1.34086551303634
4.25390156062425,19.1591027288882,1254.70516058742,1235.54605785853,0.0748795070769857,-1.67160949580675
4.28571428571429,19.504621064905,1254.70516058742,1235.20053952252,0.0755529106336637,-2.00321701635484
4.31752701080432,19.8639623213428,1254.70516058742,1234.84119826608,0.0762481687287415,-2.3356787290932
4.34933973589436,20.2390567203643,1254.70516058742,1234.46610386706,0.0769706869558797,-2.66897557300083
4.38115246098439,20.631971532699,1254.70516058742,1234.07318905472,0.0777263276067133,-3.0030779663715
4.41296518607443,21.044896174755,1254.70516058742,1233.66026441267,0.0785213328208185,2.94524011326231
4.44477791116447,21.4801234812437,1254.70516058742,1233.22503710618,0.0793622279627543,2.60966025816783
4.4765906362545,21.9400272280739,1254.70516058742,1232.76513335935,0.0802557066223027,2.27343151658945
4.50840336134454,22.42703607969,1254.70516058742,1232.27812450773,0.0812084997204087,1.93662884208259
4.54021608643457,22.9436042297598,1254.70516058742,1231.76155635766,0.0822272322583196,1.59933767871198
4.57202881152461,23.4921790893616,1254.70516058742,1231.21298149806,0.0833182721709678,1.26165282537398
4.60384153661465,24.0751664487434,1254.70516058742,1230.62999413868,0.0844875764351888,0.923676898712587
4.63565426170468,24.6948935943285,1254.70516058742,1230.01026699309,0.0857405399482791,0.58551843528289
4.66746698679472,25.3535709003781,1254.70516058742,1229.35158968704,0.0870818526693908,0.247289701450171
4.69927971188475,26.0532524344835,1254.70516058742,1228.65190815294,0.0885153700826238,-0.0908956964521342
4.73109243697479,26.7957961192715,1254.70516058742,1227.90936446815,0.090044001222571,-0.428925292016318
4.76290516206483,27.582823982189,1254.70516058742,1227.12233660523,0.0916696173753917,-0.766690211028808
4.79471788715486,28.4156830050208,1254.70516058742,1226.2894775824,0.0933929832465769,-1.10408748073844
4.8265306122449,29.2954070596613,1254.70516058742,1225.40975352776,0.0952137110098752,-1.44102209302616
4.85834333733493,30.2226803918763,1254.70516058742,1224.48248019554,0.0971302363636776,-1.77740873895481
4.89015606242497,31.1978030954708,1254.70516058742,1223.50735749195,0.0991398146478601,-2.11317315834758
4.92196878751501,32.220659010055,1254.70516058742,1222.48450157737,0.10123853430856,-2.4482530765783
4.95378151260504,33.2906864800798,1254.70516058742,1221.41447410734,0.103421344590236,-2.78259872846547
4.98559423769508,34.4068524332149,1254.70516058742,1220.29830815421,0.105682094288338,-3.11617299337366
5.01740696278511,35.5676302729414,1254.70516058742,1219.13753031448,0.108013578676827,2.8342341226691
5.04921968787515,36.7709821319954,1254.70516058742,1217.93417845543,0.110407592268233,2.50226475909709
5.08103241296519,38.014346096322,1254.70516058742,1216.6908144911,0.112854985787666,2.17110577273888
5.11284513805522,39.2946290777923,1254.70516058742,1215.41053150963,0.115345726558742,1.84074840288722
5.14465786314526,40.608206080163,1254.70516058742,1214.09695450726,0.117868962324497,1.51117457758415
5.17647058823529,41.950926656928,1254.70516058742,1212.75423393049,0.120413089285924,1.18235796500186
5.20828331332533,43.31812939062,1254.70516058742,1211.3870311968,0.122965825773857,0.854265032478633
5.24009603841537,44.704665218683,1254.70516058742,1210.00049536874,0.125514293429601,0.526856077765286
5.2719087635054,46.1049303790987,1254.70516058742,1208.60023020832,0.128045108022617,0.200086206108641
5.30372148859544,47.5129096381791,1254.70516058742,1207.19225094924,0.130544482058896,-0.12609376483035
5.33553421368547,48.922230284162,1254.70516058742,1205.78293030326,0.13299834112205,-0.45173648291584
5.36734693877551,50.3262271175818,1254.70516058742,1204.37893346984,0.135392455442593,-0.776897326942459
5.39915966386555,51.7180183418018,1254.70516058742,1202.98714224562,0.137712587523,-1.10163375927949
5.43097238895558,53.0905918594663,1254.70516058742,1201.61456872795,0.139944655783088,-1.42600476186439
5.46278511404562,54.4369010249184,1254.70516058742,1200.2682595625,0.142074913171707,-1.75007034903579
5.49459783913565,55.7499684082131,1254.70516058742,1198.95519217921,0.144090138570462,-2.07389114896442
5.52641056422569,57.0229956199464,1254.70516058742,1197.68216496747,0.145977837660321,-2.39752804443672
5.55822328931573,58.2494767605813,1254.70516058742,1196.45568382684,0.147726448810991,-2.72104186332286
5.59003601440576,59.4233126304437,1254.70516058742,1195.28184795698,0.149325548571498,-3.04449310908494
5.6218487394958,60.5389225053018,1254.70516058742,1194.16623808212,0.150766050574895,2.91524358514249
5.65366146458583,61.5913500834524,1254.70516058742,1193.11381050397,0.152040391200161,2.59173844451805
5.68547418967587,62.5763601729316,1254.70516058742,1192.12880041449,0.153142695224064,2.26811859814817
5.71728691476591,63.4905228310135,1254.70516058742,1191.21463775641,0.154068914984918,1.94432704595057
5.74909963985594,64.3312819982521,1254.70516058742,1190.37387858917,0.154816937277447,1.62030816065794
5.78091236494598,65.0970061762062,1254.70516058742,1189.60815441122,0.155386653277202,1.29600788724742
5.81272509003601,65.7870193562705,1254.70516058742,1188.91814123115,0.155779988192379,0.971373951491898
5.84453781512605,66.4016111773296,1254.70516058742,1188.30354941009,0.156000888968055,0.646356081339163
5.87635054021609,66.9420261221842,1254.70516058742,1187.76313446524,0.156055270107525,0.320906244048494
5.90816326530612,67.4104324010818,1254.70516058742,1187.29472818634,0.155950919401619,-0.00502109874638748
5.93997599039616,67.8098719590289,1254.70516058742,1186.89528862839,0.155697366945598,-0.331468716657128
5.97178871548619,68.1441937311304,1254.70516058742,1186.56096685629,0.15530572216595,-0.658476316287892
6.00360144057623,68.4179728162428,1254.70516058742,1186.28718777118,0.154788484593407,-0.98608022749891
6.03541416566627,68.6364186165392,1254.70516058742,1186.06874197088,0.154159334754412,-1.31431307167521
6.0672268907563,68.8052751872156,1254.70516058742,1185.89988540021,0.153432911797965,-1.64320341478941
6.09903961584634,68.9307170595016,1254.70516058742,1185.77444352792,0.152624584349268,-1.97277540957293
6.13085234093637,69.0192436576876,1254.70516058742,1185.68591692973,0.151750220636405,-2.30304843286583
6.16266506602641,69.0775751535698,1254.70516058742,1185.62758543385,0.150825963242429,-2.63403672617242
6.19447779111645,69.1125522226262,1254.70516058742,1185.5926083648,0.149868012975203,-2.96574904954065
6.22629051620648,69.1310417212342,1254.70516058742,1185.57411886619,0.148892425405807,2.98499694618257
6.25810324129652,69.1398498284859,1254.70516058742,1185.56531075894,0.147914922681355,2.65183377143015
6.28991596638655,69.1456437213212,1254.70516058742,1185.5595168661,0.146950722335341,2.31795616615557
6.32172869147659,69.1548824040963,1254.70516058742,1185.55027818332,0.146014384047004,1.98338002367853
6.35354141656663,69.1737569131899,1254.70516058742,1185.53140367423,0.14511967467119,1.6481277605531
6.38535414165666,69.2081397771294,1254.70516058742,1185.49702081029,0.144279451384003,1.31222827280683
6.4171668667467,69.2635433400096,1254.70516058742,1185.44161724741,0.143505562463378,0.975716771050861
6.44897959183673,69.3450863523926,1254.70516058742,1185.36007423503,0.142808765030557,0.638634482968861
6.48079231692677,69.4574680969031,1254.70516058742,1185.24769249052,0.142198658992195,0.301028216167838
6.51260504201681,69.6049492397126,1254.70516058742,1185.10021134771,0.141683636412485,-0.0370502200044777
6.54441776710684,69.7913385764443,1254.70516058742,1184.91382201098,0.141270845578398,-0.375544728583662
