k,deltaD,D_base,D_harmonic,amplitude,phase
0.5,4.399935058778169,609.57744014345,605.1775050846718,12.758473361294095,-0.16834079667785362
0.531812725090036,4.391187374607057,609.57744014345,605.1862527688429,10.632139982643292,-0.4792903226940521
0.563625450180072,4.381928751964665,609.57744014345,605.1955113914853,8.957502339034114,-0.7903173796354827
0.595438175270108,4.372164671852374,609.57744014345,605.2052754715976,7.620516111942105,-1.1014270672878232
0.6272509003601441,4.361901044077172,609.57744014345,605.2155390993728,6.540036829594915,-1.4126245660531078
0.65906362545018,4.351144227068403,609.57744014345,605.2262959163816,5.657255803540383,-1.7239151420196956
0.690876350540216,4.339901049097648,609.57744014345,605.2375390943523,4.928842041174572,-2.035304151952766
0.7226890756302521,4.328178830945603,609.57744014345,605.2492613125044,4.322389275919578,-2.346797048236179
0.7545018007202882,4.315985410060534,609.57744014345,605.2614547333894,3.813331775333762,-2.65839938377515
0.7863145258103241,4.303329166279582,609.57744014345,605.2741109771704,3.3828166149524543,-2.970116816871799
0.8181272509003601,4.290219049155894,609.57744014345,605.2872210942941,3.0162112146588296,3.001230191110726
0.8499399759903962,4.276664606955364,609.57744014345,605.3007755364946,2.7020404584550426,2.6892651422453966
0.8817527010804321,4.262676017393801,609.57744014345,605.3147641260562,2.43121913292105,2.377167340385338
0.9135654261704682,4.24826412015932,609.57744014345,605.3291760232906,2.196490475647948,2.0649306578065443
0.9453781512605042,4.233440451303977,609.57744014345,605.343999692146,1.9920105928586531,1.7525488378455367
0.9771908763505401,4.218217279562396,609.57744014345,605.3592228638876,1.8130374515643684,1.4400154904975264
1.0090036014405763,4.20260764466309,609.57744014345,605.3748324987869,1.6556957443167248,1.1273240881803472
1.0408163265306123,4.186625397710941,609.57744014345,605.390814745739,1.5167974181790937,0.8144679617006568
1.0726290516206483,4.170285243698572,609.57744014345,605.4071548997514,1.393703468041865,0.5014402964693427
1.1044417767106842,4.15360278622552,609.57744014345,605.4238373572244,1.2842166178767165,0.18823412900875225
1.1362545018007202,4.136594574486821,609.57744014345,605.4408455689631,1.1864973339033638,-0.1251576561885429
1.1680672268907561,4.119278152602192,609.57744014345,605.4581619908478,1.098997613225672,-0.4387423293902847
1.1998799519807923,4.101672111347739,609.57744014345,605.4757680321022,1.0204084239362714,-0.7525273178764756
1.2316926770708283,4.083796142351957,609.57744014345,605.493644001098,0.9496177091343868,-1.0665202076309117
1.2635054021608643,4.06567109481648,609.57744014345,605.5117690486335,0.8856766242999438,-1.3807287443903296
1.2953181272509005,4.0473190348084245,609.57744014345,605.5301211086415,0.8277722350926435,-1.695160833950376
1.3271308523409364,4.028763307172198,609.57744014345,605.5486768362778,0.7752053170278003,-2.0098245416257567
1.3589435774309724,4.010028600099304,609.57744014345,605.5674115433507,0.7273722086687755,-2.3247280907411088
1.3907563025210083,3.991141012375124,609.57744014345,605.5862991310748,0.6837499040589298,-2.6398798600258577
1.4225690276110443,3.9721281233274794,609.57744014345,605.6053120201225,0.6438837479127875,-2.955288379769248
1.4543817527010803,3.9530190654641046,609.57744014345,605.6244210779859,0.6073772331019929,3.0122229806040957
1.4861944777911165,3.933844599793474,609.57744014345,605.6435955436565,0.5738835046914164,2.696274790626397
1.5180072028811524,3.9146371937795266,609.57744014345,605.6628029496704,0.5430982558612345,2.380043410430596
1.5498199279711884,3.895431101879126,609.57744014345,605.6820090415708,0.5147537642495736,2.0635197725505194
1.5816326530612244,3.876262448566308,609.57744014345,605.7011776948837,0.48861386674011403,1.746694701787637
1.6134453781512605,3.857169313728832,609.57744014345,605.7202708297211,0.4644697097071717,1.4295589302945462
1.6452581032412965,3.838191820279121,609.57744014345,605.7392483231708,0.4421361425943757,1.1121031152968628
1.6770708283313325,3.819372223784967,609.57744014345,605.758067919665,0.4214486472519513,0.7943178597082848
1.7088835534213684,3.8007550038794307,609.57744014345,605.7766851395705,0.4022607150809721,0.47619373590331504
1.7406962785114046,3.782386957151516,609.57744014345,605.7950531862984,0.3844415997882342,0.15772131291893055
1.7725090036014406,3.7643172911717784,609.57744014345,605.8131228522782,0.36787438625309204,-0.16110881263694526
1.8043217286914766,3.7465977192255195,609.57744014345,605.8308424242244,0.35245432629487444,-0.4803059816940693
1.8361344537815125,3.7292825552646036,609.57744014345,605.8481575881854,0.3380874004888556,-0.7998794335754493
1.8679471788715485,3.712428808501727,609.57744014345,605.8650113349482,0.3246890719975721,-1.1198382623400742
1.8997599039615847,3.696096276973094,609.57744014345,605.8813438664769,0.31218320397345,-1.4401913683759915
1.9315726290516206,3.680347639307797,609.57744014345,605.8970925041422,0.3005011166785433,-1.7609474050353742
1.9633853541416566,3.6652485438083886,609.57744014345,605.9121915996416,0.289580764253951,-2.0821147201454457
1.9951980792316926,3.650867693843793,609.57744014345,605.9265724496062,0.27936601420491375,-2.403701292283402
2.0270108043217285,3.637276928408255,609.57744014345,605.9401632150417,0.269806015268407,-2.725714661772925
2.0588235294117645,3.624551296549839,609.57744014345,605.9528888469001,0.26085464149435045,-3.0481618564438637
2.090636254501801,3.612769124221245,609.57744014345,605.9646710192287,0.25247000218115145,2.912135994879125
2.1224489795918364,3.6020120719240367,609.57744014345,605.9754280715259,0.24461400882063275,2.58880251781509
2.154261704681873,3.5923651813326387,609.57744014345,605.9850749621173,0.23725199147893364,2.2650180240806628
2.186074429771909,3.5839169088892504,609.57744014345,605.9935232345607,0.23035235811380572,1.9407783752006509
2.2178871548619448,3.576759144147559,609.57744014345,606.0006809993024,0.22388629123270135,1.6160803852261467
2.2496998799519807,3.5709872104280294,609.57744014345,606.0064529330219,0.2178274770654704,1.2909219184439218
2.2815126050420167,3.566699845114499,609.57744014345,606.0107402983355,0.21215186307748748,0.9653019881110441
2.3133253301320527,3.563999156692148,609.57744014345,606.0134409867578,0.20683744020642852,0.6392208548519802
2.3451380552220886,3.5629905553906838,609.57744014345,606.0144495880593,0.20186404668341174,0.3126801231347792
2.376950780312125,3.563782654066131,609.57744014345,606.0136574893838,0.1972131907091049,-0.01431716597189529
2.4087635054021606,3.5664871357241736,609.57744014345,606.0109530077258,0.1928678896103334,-0.34176644776239345
2.440576230492197,3.571218583885525,609.57744014345,606.0062215595644,0.18881252341039798,-0.6696615547580976
2.472388955582233,3.5780942718031383,609.57744014345,605.9993458716468,0.18503270101508135,-0.9979946477941606
2.504201680672269,3.587233906393408,609.57744014345,605.9902062370566,0.1815151374524793,-1.3267561597469744
2.536014405762305,3.5987593226325316,609.57744014345,605.9786808208174,0.17824754081334698,-1.6559347543537388
2.567827130852341,3.612794124132847,609.57744014345,605.9646460193171,0.17521850772429287,-1.985517302537406
2.599639855942377,3.6294632656364456,609.57744014345,605.9479768778135,0.1724174263524349,-2.315488878528043
2.6314525810324128,3.6488925733008273,609.57744014345,605.9285475701491,0.16983438609002768,-2.6458327778584136
2.6632653061224487,3.6712081988853242,609.57744014345,605.9062319445646,0.16746009320331348,-2.9765305590015387
2.695078031212485,3.696536004340601,609.57744014345,605.8809041391094,0.16528579185392736,2.9756231971672547
2.726890756302521,3.7250008738438964,609.57744014345,605.8524392696061,0.16330319001463015,2.6442795661422904
2.758703481392557,3.7567259510606164,609.57744014345,605.8207141923893,0.1615043899055953,2.3126470042015765
2.790516206482593,3.7918318003695504,609.57744014345,605.7856083430804,0.15988182267387838,1.9807499752291562
2.822328931572629,3.830435491974754,609.57744014345,605.7470046514752,0.15842818712785622,1.6486140886833434
2.854141656662665,3.8726496122909566,609.57744014345,605.704790531159,0.15713639242110672,1.3162659073801468
2.885954381752701,3.918581202723317,609.57744014345,605.6588589407266,0.15599950465676862,0.9837327347077579
2.917767106842737,3.9683306320046086,609.57744014345,605.6091095114454,0.15501069745453752,0.6510423843543464
2.949579831932773,4.021990409577256,609.57744014345,605.5554497338727,0.1541632065879586,0.31822293620209213
2.9813925570228093,4.079643950139371,609.57744014345,605.4977961933106,0.15345028885984976,-0.01469751749062739
3.013205282112845,4.141364302358738,609.57744014345,605.4360758410912,0.15286518543805608,-0.3476911311537814
3.045018007202881,4.207212857867603,609.57744014345,605.3702272855824,0.1524010899215871,-0.6807305655506405
3.076830732292917,4.277238059915362,609.57744014345,605.3002020835346,0.15205112144742433,-1.0137892432855675
3.108643457382953,4.351474134382897,609.57744014345,605.2259660090671,0.15180830317919447,-1.3468415955576787
3.140456182472989,4.429939869118471,609.57744014345,605.1475002743315,0.15166554653820805,-1.679863295786007
3.172268907563025,4.512637470615914,609.57744014345,605.064802672834,0.15161564154221965,-2.012831476102267
3.204081632653061,4.599551529712585,609.57744014345,604.9778886137374,0.15165125360450527,-2.3457249231836235
3.235894357743097,4.690648130062073,609.57744014345,604.8867920133879,0.1517649271117425,-2.6785242504540756
3.2677070828331334,4.785874134388678,609.57744014345,604.7915660090613,0.15194909604020854,-3.0112120442918053
3.2995198079231693,4.885156683764194,609.57744014345,604.6922834596858,0.15219610178280266,2.939412324666205
3.3313325330132053,4.988402944110476,609.57744014345,604.5890371993395,0.1524982182418813,2.606991383140811
3.3631452581032413,5.09550013165574,609.57744014345,604.4819400117942,0.15284768409401578,2.274721337928008
3.3949579831932772,5.206315845009158,609.57744014345,604.3711242984408,0.15323674195348336,1.9426108160392845
3.426770708283313,5.320698725785292,609.57744014345,604.2567414176647,0.15365768395532714,1.6106661693523951
3.458583433373349,5.438479462329724,609.57744014345,604.1389606811202,0.1541029030522889,1.2788914996258005
3.490396158463385,5.559472142185427,609.57744014345,604.0179680012645,0.15456494908271845,0.9472887095837418
3.522208883553421,5.683475948766045,609.57744014345,603.8939641946839,0.1550365884309317,0.6158575782546112
3.554021608643457,5.810277186576172,609.57744014345,603.7671629568738,0.15551086588228136,0.2845958584556584
3.5858343337334935,5.939651607798055,609.57744014345,603.6377885356519,0.1559811670889477,-0.046500605921523046
3.6176470588235294,6.071367001651765,609.57744014345,603.5060731417982,0.1564412799254267,-0.3774377453611235
3.6494597839135654,6.2051859973011005,609.57744014345,603.3722541461489,0.15688545294013062,-0.7082231155913289
3.6812725090036014,6.340869021829121,609.57744014345,603.2365711216208,0.15730844911329517,-1.0388657366543288
3.7130852340936373,6.478177347577116,609.57744014345,603.0992627958728,0.15770559321887395,-1.3693759230176588
3.7448979591836733,6.616876158377636,609.57744014345,602.9605639850723,0.15807281126037134,-1.6997651075742382
3.7767106842737093,6.756737562317653,609.57744014345,602.8207025811323,0.1584066607024546,-2.0300456623355467
3.8085234093637452,6.8975434797763455,609.57744014345,602.6798966636736,0.15870435053943818,-2.3602307185267666
3.840336134453781,7.039088339580985,609.57744014345,602.538351803869,0.15896375061063536,-2.690333988643439
3.8721488595438176,7.181181522952556,609.57744014345,602.3962586204974,0.159183389968672,-3.0203695928284584
3.9039615846338536,7.323649504084301,609.57744014345,602.2537906393657,0.1593624445060202,2.932833415498836
3.9357743097238895,7.46633764708713,609.57744014345,602.1111024963628,0.15950071442239835,2.6028899798588525
3.9675870348139255,7.609111631049927,609.57744014345,601.9683285124,0.1595985924496081,2.2729710329567956
3.9993997599039615,7.7518584873420195,609.57744014345,601.8255816561079,0.1596570240228511,1.9430624061846347
4.031212484993997,7.894487245401592,609.57744014345,601.6829528980484,0.1596774607866728,1.6131502632264356
4.063025210084033,8.036929194487811,609.57744014345,601.5405109489622,0.15966180894349952,1.2832212141632988
4.09483793517407,8.179137778744348,609.57744014345,601.3983023647056,0.15961237399394507,0.9532624170294747
4.126650660264105,8.321088151108484,609.57744014345,601.2563519923415,0.15953180338659623,0.6232616668561392
4.158463385354142,8.462776417862642,609.57744014345,601.1146637255873,0.15942302850117285,0.2932074724631509
4.190276110444177,8.604218609969848,609.57744014345,600.9732215334801,0.15928920724605677,-0.03691087856169267
4.222088835534214,8.745449419775355,609.57744014345,600.8319907236746,0.15913366837378526,-0.36710326612432864
4.25390156062425,8.88652074240838,609.57744014345,600.6909194010416,0.15895985842068064,-0.697378694467132
4.285714285714286,9.027500060490183,609.57744014345,600.5499400829598,0.15877129197267867,-1.0277452588866625
4.317527010804321,9.168468708852629,609.57744014345,600.4089714345973,0.15857150576026127,-1.3582101216090696
4.3493397358943575,9.309520053171013,609.57744014345,600.267920090279,0.15836401689983787,-1.6887794961241636
4.381152460984394,9.45075761302212,609.57744014345,600.1266825304278,0.15815228543382207,-2.019458639319289
4.4129651860744294,9.592293156150618,609.57744014345,599.9851469872993,0.15793968118061824,-2.3502518508098533
4.444777911164466,9.734244786891736,609.57744014345,599.8431953565582,0.15772945479085596,-2.6811624789270057
4.476590636254501,9.87673504795373,609.57744014345,599.7007050954962,0.15752471281734992,-3.012192932889802
4.508403361344538,10.019889051253017,609.57744014345,599.557551092197,0.15732839654208808,2.9398406064258737
4.540216086434573,10.16383265032448,609.57744014345,599.4136074931255,0.15714326426180342,2.608566934394501
4.57202881152461,10.308690664064784,609.57744014345,599.2687494793852,0.1569718767113438,2.2771716372189297
4.603841536614646,10.454585159265662,609.57744014345,599.1228549841843,0.1568165852981245,1.9456558298512006
4.635654261704682,10.60163379753169,609.57744014345,598.9758063459183,0.1566795228280988,1.6140214251875442
4.667466986794718,10.749948250788407,609.57744014345,598.8274918926616,0.15656259642099166,1.2822710916849034
4.699279711884754,10.899632688605948,609.57744014345,598.677807454844,0.15646748233720362,0.9504082068022601
4.73109243697479,11.050782339990747,609.57744014345,598.5266578034592,0.1563956224684486,0.618436806500046
4.7629051620648255,11.203482132054319,609.57744014345,598.3739580113956,0.15634822227669562,0.28636153105086015
4.794717887154862,11.357805408041827,609.57744014345,598.2196347354081,0.15632624999979988,-0.04581243255878981
4.826530612244897,11.513812727520417,609.57744014345,598.0636274159295,0.15633043697576254,-0.37807941132268513
4.858343337334934,11.671550752033113,609.57744014345,597.9058893914168,0.1563612789700594,-0.7104333096562685
4.89015606242497,11.831051220199015,609.57744014345,597.746388923251,0.15641903842079669,-1.0428676751983283
4.921968787515006,11.992330016989627,609.57744014345,597.5851101264603,0.15650374754432625,-1.3753757665499
4.953781512605042,12.155386342727866,609.57744014345,597.4220538007221,0.15661521226867214,-1.7079506224927956
4.985594237695078,12.320201988155418,609.57744014345,597.2572381552945,0.15675301698358599,-2.0405851322007162
5.017406962785114,12.486740722680565,609.57744014345,597.0906994207694,0.15691653011399662,-2.373272105932488
5.04921968787515,12.654947803582559,609.57744014345,596.9224923398674,0.15710491053791345,-2.7060043456796303
5.081032412965186,12.824749614477128,609.57744014345,596.7526905289728,0.157317114880493,-3.038774715232215
5.112845138055222,12.996053441698336,609.57744014345,596.5813867017516,0.15755190572291347,2.9116090980541407
5.144657863145258,13.168747397378525,609.57744014345,596.4086927460714,0.15780786076794376,2.578783287242458
5.176470588235294,13.342700497884834,609.57744014345,596.2347396455651,0.1580833830037078,2.245939703758885
5.20828331332533,13.517762905843824,609.57744014345,596.0596772376061,0.15837671190314145,1.9130845661985099
5.240096038415366,13.693766343258858,609.57744014345,595.8836738001911,0.1586859356891889,1.580223708151149
5.271908763505402,13.870524682135738,609.57744014345,595.7069154613142,0.1590090046849025,1.247362522400897
5.303721488595438,14.04783471761084,609.57744014345,595.5296054258391,0.15934374575361562,0.9145059090727883
5.335534213685474,14.225477126779992,609.57744014345,595.35196301667,0.1596878778173024,0.5816582280808144
5.36734693877551,14.403217614281175,609.57744014345,595.1742225291688,0.16003902842159565,0.24882325618957038
5.399159663865546,14.580808243211663,609.57744014345,594.9966319002383,0.1603947512939111,-0.08399585103930379
5.430972388955582,14.757988947176386,609.57744014345,594.8194511962736,0.16075254481731063,-0.4167965921862302
5.4627851140456185,14.934489216220072,609.57744014345,594.6429509272299,0.16110987131756535,-0.7495771476077007
5.494597839135654,15.110029946166378,609.57744014345,594.4674101972836,0.16146417703507893,-1.0823364016123962
5.52641056422569,15.284325437513985,609.57744014345,594.293114705936,0.16181291262756053,-1.4150739590614159
5.558223289315726,15.457085526636888,609.57744014345,594.1203546168131,0.16215355402442963,-1.7477901563072744
5.590036014405762,15.628017828688257,609.57744014345,593.9494223147617,0.1624836234307632,-2.080486066416977
5.621848739495798,15.796830068414238,609.57744014345,593.7806100750357,0.16280071025799744,-2.413163498652567
5.653661464585834,15.963232472163781,609.57744014345,593.6142076712862,0.16310249174153793,-2.7458249922101596
5.68547418967587,16.126940191837434,609.57744014345,593.4504999516125,0.16338675299273148,-3.0784738042444255
5.717286914765906,16.2876757294581,609.57744014345,593.2897644139919,0.16365140622505278,2.8720714149471194
5.749099639855943,16.445171329575032,609.57744014345,593.1322688138749,0.1638945088926106,2.539435416421947
5.780912364945978,16.59917130588633,609.57744014345,592.9782688375636,0.16411428048356078,2.2067982243567568
5.812725090036015,16.74943426838979,609.57744014345,592.8280058750602,0.1643091177220574,1.8741539413467612
5.84453781512605,16.89573521805073,609.57744014345,592.6817049253992,0.16447760795006813,1.5414960947615837
5.8763505402160865,17.037867477444365,609.57744014345,592.5395726660056,0.1646185404843917,1.208817680872451
5.908163265306122,17.175644428075202,609.57744014345,592.4017957153748,0.16473091577422902,0.8761112136853423
5.939975990396158,17.30890102805438,609.57744014345,592.2685391153956,0.164813952219802,0.5433687781943328
5.971788715486194,17.437495087457933,609.57744014345,592.139945055992,0.16486709055195364,0.21058208772792297
6.00360144057623,17.561308282909522,609.57744014345,592.0161318605404,0.16488999571517707,-0.12225745498321783
6.035414165666267,17.680246897603297,609.57744014345,591.8971932458467,0.16488255624082931,-0.4551586934327597
6.067226890756302,17.794242277993703,609.57744014345,591.7831978654563,0.16484488114214257,-0.7881306501202535
6.099039615846339,17.903251003557102,609.57744014345,591.6741891398929,0.16477729440646408,-1.1211824569922964
6.130852340936374,18.00725477127503,609.57744014345,591.5701853721749,0.16468032720192,-1.454323284090081
6.162665066026411,18.10626000159266,609.57744014345,591.4711801418573,0.16455470795387475,-1.787562266990283
6.194477791116446,18.200297177499692,609.57744014345,591.3771429659503,0.1644013504804739,-2.1209084336615076
6.2262905162064826,18.289419932885835,609.57744014345,591.2880202105641,0.16422134040514666,-2.4543706313906504
6.258103241296518,18.373703910357108,609.57744014345,591.2037362330929,0.16401592008671878,-2.7879574544585584
